time (s)	magX	magY	magZ
1484.833431	288.123901	98.863815	-147.153137
1484.836766	279.590881	96.467560	-136.925201
1484.839670	271.583862	94.246643	-128.801285
1484.843011	264.278198	92.025711	-120.326714
1484.846335	256.271179	90.389244	-112.144363
1484.849665	249.257736	87.642319	-104.254242
1484.853002	242.302750	85.421394	-97.533020
1484.856334	234.821732	83.726471	-91.045593
1484.859711	228.509644	81.563995	-85.785507
1484.862999	222.548218	79.576859	-80.466980
1484.866334	216.528351	77.765045	-75.908241
1484.869663	210.800690	75.485680	-71.817070
1484.873001	205.423721	74.609001	-67.141441
1484.876334	200.222092	72.680305	-62.232033
1484.879666	194.962006	70.459381	-58.666862
1484.882998	189.877258	69.173584	-55.452370
1484.886362	184.792511	67.595558	-51.945648
1484.890963	175.850372	64.205727	-46.159557
1484.893882	171.291641	62.978374	-42.945065
1484.897205	167.375793	61.751022	-40.431915
1484.900132	163.167740	59.939217	-38.035656
1484.903435	158.492096	58.361191	-35.464058
1484.906782	154.459381	57.659847	-33.652252
1484.910092	150.368210	55.614258	-31.489777
1484.912993	146.101685	54.270020	-27.983055
1484.916323	142.594971	52.750435	-25.586792
1484.919660	139.088257	51.581532	-23.658096
1484.922993	135.406189	50.178841	-21.729401
1484.926327	131.782578	49.126827	-19.508476
1484.929685	127.223846	48.016365	-17.112217
1484.932992	123.658676	47.081238	-15.125076
1484.936322	119.684387	45.678551	-13.547054
1484.939656	116.762131	44.100525	-11.384575
1484.943000	113.196960	42.814728	-9.864994
1484.946329	110.157806	41.996494	-8.111633
1484.949653	107.177086	40.593803	-6.416718
1484.952992	103.670364	39.950905	-4.780247
1484.956317	100.338982	38.898888	-3.845123
1484.959656	97.708939	37.437756	-2.734657
1484.963949	92.682640	35.918175	0.129158
1484.967255	90.227936	35.099941	0.362938
1484.970505	87.831680	33.931034	0.830505
1484.973442	85.493866	33.463470	1.882523
1484.976752	83.389832	32.820572	2.759201
1484.980084	81.227356	32.294563	3.285210
1484.982982	79.064873	31.417885	3.402100
1484.986334	77.369957	30.190533	4.044998
1484.989652	75.382812	29.606079	4.863235
1484.992981	73.921684	28.963179	4.103439
1484.996318	71.992989	27.618937	4.863235
1484.999651	71.291641	27.092928	6.090591
1485.002983	69.888954	26.625364	5.272346
1485.006322	68.194038	25.924021	5.447685
1485.009650	65.914665	25.398012	6.149033
1485.012984	65.213326	25.164230	5.447685
1485.016320	64.395088	24.872005	5.330795
1485.019672	63.109291	24.872005	6.207481
1485.022992	62.174168	24.229105	6.149033
1485.026318	61.472824	23.527761	5.389236
1485.029685	61.063705	23.177090	5.798363
1485.032983	59.544125	22.826416	5.155457
1485.037161	57.907654	22.300409	6.090591
1485.040504	56.855640	21.891293	6.149033
1485.043872	56.095848	21.774401	6.265923
1485.046741	55.452950	21.365284	6.382812
1485.050100	54.517826	20.839275	6.382812
1485.053434	53.991817	21.189947	6.791931
1485.056314	52.881355	20.254822	6.324371
1485.059644	52.530685	19.962595	7.084160
1485.062990	51.244884	19.962595	7.084160
1485.066310	50.835770	19.378141	7.317940
1485.069643	49.316189	19.787258	7.434830
1485.073009	48.497955	18.969025	7.434830
1485.076315	47.504379	18.852133	8.253067
1485.079647	46.803040	18.326126	7.960838
1485.082985	46.335476	18.501461	8.369957
1485.086318	45.108124	17.975452	8.428406
1485.089644	44.172997	16.689655	8.194626
1485.092981	43.997662	17.157219	8.895966
1485.096305	42.887199	16.631210	8.895966
1485.099640	42.010521	16.806545	9.188187
1485.102973	41.835182	16.280537	8.720627
1485.106310	40.666275	16.046757	8.779076
1485.110516	39.497368	15.696084	9.421974
1485.113904	39.088253	15.696084	8.779076
1485.117270	38.503799	15.579194	8.895966
1485.120072	37.802452	15.345411	9.421974
1485.123394	37.860901	15.053185	10.123314
1485.126736	37.101112	14.410286	9.246635
1485.129667	36.691994	14.936295	9.597313
1485.132973	36.516655	14.936295	9.538864
1485.136304	36.399765	14.410286	9.480423
1485.139638	36.049091	14.527177	8.779076
1485.142969	35.347748	14.410286	9.071297
1485.146305	35.347748	14.410286	9.421974
1485.149632	35.639973	14.118059	9.421974
1485.152975	35.464638	14.293396	9.246635
1485.156297	35.581528	14.410286	8.662186
1485.159641	34.471069	14.118059	9.012856
1485.162969	35.172413	14.059614	8.895966
1485.166300	35.055523	14.059614	8.603737
1485.169634	34.938629	13.767387	8.311516
1485.172974	34.997074	14.351841	7.727058
1485.176304	34.938629	14.176505	8.077728
1485.179674	35.347748	13.825833	7.843948
1485.183817	34.997074	14.410286	7.785500
1485.187145	35.113968	14.468732	7.376389
1485.190521	34.471069	14.702513	6.675041
1485.193389	35.289303	14.234950	7.142609
1485.196730	34.587959	14.234950	6.733482
1485.200054	34.646404	14.410286	8.194626
1485.202983	34.997074	13.825833	8.720627
1485.206300	34.178841	14.118059	7.551720
1485.209627	34.061951	14.293396	8.837517
1485.212971	33.769722	14.410286	8.019287
1485.216292	34.471069	14.468732	8.662186
1485.219633	33.828171	13.942723	7.902390
1485.222991	33.769722	14.410286	8.136177
1485.226301	33.535942	14.234950	7.785500
1485.229625	33.360607	14.293396	8.662186
1485.232961	33.419052	14.001169	9.129745
1485.236294	33.068378	14.468732	9.305084
1485.239632	33.068378	13.533607	9.421974
1485.242965	32.542374	14.234950	9.597313
1485.246318	32.659264	14.176505	10.357094
1485.249627	33.068378	13.533607	9.597313
1485.252962	33.243717	13.825833	9.363525
1485.257144	32.951488	14.410286	9.714203
1485.260498	33.185272	13.884278	10.240204
1485.263831	33.652832	14.293396	10.415543
1485.266743	33.302162	14.176505	10.590881
1485.270082	33.243717	14.176505	9.655754
1485.272994	33.360607	14.702513	10.006424
1485.276330	33.652832	14.819404	9.714203
1485.279625	34.178841	14.994740	9.188187
1485.282959	34.821739	15.462302	10.006424
1485.286292	35.230858	15.520748	8.895966
1485.289647	35.815311	15.228521	9.363525
1485.292959	36.049091	15.403857	9.305084
1485.296286	36.399765	15.637639	8.428406
1485.299621	36.049091	16.105202	8.837517
1485.302959	37.159554	16.397429	8.662186
1485.306289	37.685562	16.748100	8.486847
1485.309623	38.036236	16.748100	8.369957
1485.312957	38.620689	16.923435	8.077728
1485.316291	39.731152	17.274109	8.253067
1485.319613	39.380478	17.390999	8.136177
1485.322955	40.783165	17.683226	8.720627
1485.327210	41.484512	18.443016	8.194626
1485.330572	42.419636	18.092344	7.610168
1485.333894	42.244301	18.150789	7.960838
1485.336709	43.237869	18.969025	7.434830
1485.340039	43.413208	19.378141	7.084160
1485.343381	44.056107	19.495031	7.201050
1485.346289	44.699005	20.079487	7.727058
1485.349618	45.458794	20.021040	8.019287
1485.352955	45.517242	20.079487	7.610168
1485.356287	45.867912	20.371712	8.194626
1485.359618	46.277031	21.189947	7.084160
1485.362975	46.978374	21.306839	8.369957
1485.366279	47.270599	21.540619	8.194626
1485.369619	48.205727	22.417299	8.954407
1485.372945	48.673290	21.891293	8.311516
1485.376285	48.790180	22.125072	8.486847
1485.379609	50.368202	22.241964	8.194626
1485.382942	50.485096	22.767971	8.486847
1485.386287	50.543541	23.235535	8.603737
1485.389610	51.770893	23.586206	9.012856
1485.392955	51.946228	23.703098	8.136177
1485.396277	53.173584	24.521332	7.902390
1485.400465	54.634716	25.865576	8.486847
1485.403795	56.388077	25.514904	8.545296
1485.407162	57.147865	26.391584	7.727058
1485.410039	58.258327	26.859146	8.136177
1485.413369	59.953243	27.209818	7.727058
1485.416723	60.829922	27.969608	7.025719
1485.419611	61.998829	29.489187	6.032143
1485.422944	63.518410	30.132086	5.623024
1485.426275	65.330215	30.658094	4.921677
1485.429603	66.557571	31.651665	4.804787
1485.432978	68.953827	32.119228	4.454117
1485.436271	70.005844	33.521915	4.103439
1485.439611	72.518997	35.041496	4.044998
1485.442978	74.506134	35.450615	3.694328
1485.446275	76.142609	36.619522	2.642311
1485.449626	78.188194	37.087082	1.824081
1485.452943	80.467560	38.606663	0.772064
1485.456273	81.870255	39.892460	0.479836
1485.459608	84.149620	40.360023	-0.279953
1485.462942	86.604324	41.762711	-1.273529
1485.466274	88.825249	42.931618	-2.500877
1485.469600	91.163063	43.808296	-3.260670
1485.473811	95.663353	46.730568	-5.072479
1485.477133	97.884277	47.431911	-6.182938
1485.480543	100.338982	49.594391	-7.585625
1485.483387	102.559906	50.529514	-7.936295
1485.486702	105.073059	51.932205	-9.806545
1485.490023	107.293976	53.393337	-10.215668
1485.492965	110.683807	54.854469	-11.033901
1485.496273	112.378723	55.964931	-12.202808
1485.499602	115.534775	57.835182	-12.904152
1485.502938	118.047928	59.530098	-13.897728
1485.506280	120.502625	60.757454	-15.241966
1485.509603	123.658676	61.984806	-16.586212
1485.512930	126.756279	64.088837	-17.696674
1485.516263	129.853882	66.017532	-18.573353
1485.519605	132.717712	67.595558	-19.333141
1485.522933	136.224426	69.290474	-21.378731
1485.526268	139.614258	71.452957	-24.184105
1485.529596	143.588547	73.206314	-24.827003
1485.532928	147.153717	75.193451	-26.638813
1485.536281	151.069550	77.180595	-29.444187
1485.539606	155.277618	79.576859	-31.372883
1485.542932	159.368790	81.973114	-33.593807
1485.547188	168.895386	87.525421	-40.373466
1485.550452	173.220337	89.746353	-44.172417
1485.553767	178.246643	93.311523	-48.322037
1485.556685	183.097595	96.642899	-52.237877
1485.560034	189.409698	99.857391	-57.439514
1485.563349	194.845123	103.422562	-62.582703
1485.566266	201.975449	106.987717	-69.187027
1485.569600	206.884857	110.260666	-75.908241
1485.572927	213.430740	114.410278	-82.278786
1485.576262	220.035065	118.443008	-88.941559
1485.579595	226.405609	122.417297	-96.130333
1485.582929	232.717697	126.800705	-104.371132
1485.586258	238.737579	130.950317	-113.196381
1485.589590	245.575684	135.158386	-122.138519
1485.592954	252.296906	139.483337	-131.606659
1485.596258	258.842773	143.866745	-142.009949
1485.599594	265.096436	149.535934	-152.471649
1485.602932	270.882538	154.036240	-163.342499
1485.606253	278.363525	158.653427	-174.680878
1485.609588	283.740479	163.971939	-186.077728
1485.612930	290.227936	168.589127	-198.585037
1485.616290	296.072479	173.381638	-225.703690
1485.620437	307.177094	183.317352	-237.684982
1485.623816	311.560486	188.343643	-252.588547
1485.627132	317.580383	193.662186	-267.784332
1485.630039	322.723572	198.571594	-281.811218
1485.633371	327.282288	203.422546	-297.123901
1485.636703	330.789001	208.273529	-312.553467
1485.639634	335.464661	212.715363	-329.677948
1485.642917	339.029785	217.800110	-346.218018
1485.646254	341.776733	222.475739	-364.160736
1485.649590	345.166565	226.683807	-382.454132
1485.652923	346.861511	230.950317	-401.448853
1485.656257	348.322632	234.983047	-420.852722
1485.659584	348.790161	238.606644	-440.957916
1485.662917	348.965515	242.522507	-461.472260
1485.666261	348.439514	246.029221	-482.980133
1485.669582	346.803040	248.250137	-505.072479
1485.672918	343.763855	251.113968	-527.457031
1485.676250	340.724731	253.568680	-551.185913
1485.679584	335.464661	255.322037	-573.628906
1485.682913	329.444763	255.848038	-597.474609
1485.686249	321.613098	256.315613	-622.080078
1485.690515	303.670349	256.023376	-671.700195
1485.693843	291.513733	254.386902	-695.954956
1485.697177	278.363525	252.633560	-719.976074
1485.700011	263.284607	249.594391	-743.821777
1485.703346	245.692581	246.029221	-767.258301
1485.706668	227.282288	241.412018	-789.292236
1485.709590	206.884857	235.976608	-810.449463
1485.712909	184.500290	229.956757	-829.853271
1485.716242	161.823486	223.177078	-848.555786
1485.719583	136.575104	214.936279	-864.569824
1485.722916	110.450027	206.344818	-879.239624
1485.726248	83.565163	196.701340	-891.396362
1485.729583	54.985390	186.590302	-900.805908
1485.732908	26.814728	176.829910	-908.812988
1485.736242	-1.472824	165.140854	-913.956177
1485.739577	-30.753944	153.510223	-916.469360
1485.742912	-59.859726	140.593796	-916.761597
1485.746241	-87.796616	128.787842	-915.066650
1485.749581	-115.265930	116.514313	-910.566284
1485.752916	-141.741684	104.299240	-903.143799
1485.756265	-167.457626	91.850380	-894.201660
1485.759574	-191.887772	79.985977	-884.149048
1485.763751	-237.767380	55.906487	-857.965576
1485.767092	-258.398621	44.918762	-843.120361
1485.770440	-276.750427	33.346581	-825.586792
1485.773333	-295.277649	22.183517	-808.754517
1485.776672	-311.934570	11.897135	-789.233765
1485.780026	-325.844543	1.961426	-770.531250
1485.782908	-339.988342	-7.272942	-750.601440
1485.786235	-351.560486	-16.682644	-729.619507
1485.789590	-362.139099	-25.040325	-708.053223
1485.792913	-371.315002	-32.988895	-686.720581
1485.796243	-378.679138	-41.872585	-665.388062
1485.799576	-385.984802	-49.119816	-642.711304
1485.802902	-392.705994	-55.899471	-620.618896
1485.806244	-395.862061	-62.094677	-597.532959
1485.809575	-398.901245	-68.757446	-575.557617
1485.812906	-401.531250	-73.959091	-552.997681
1485.816235	-403.050842	-78.342484	-529.385742
1485.819578	-403.985962	-83.135010	-507.994720
1485.822904	-403.343079	-87.050842	-484.967255
1485.826239	-402.641724	-91.200470	-462.933380
1485.829570	-399.836365	-94.356522	-440.957916
1485.832942	-397.147827	-97.161896	-419.157806
1485.837112	-388.614868	-101.545303	-378.070740
1485.840506	-384.465210	-102.831100	-357.965515
1485.843839	-379.029785	-104.116898	-337.860321
1485.846680	-372.893066	-104.467560	-318.631775
1485.849997	-365.704224	-105.578018	-300.805969
1485.853337	-359.859741	-104.818237	-282.687897
1485.856236	-352.787842	-104.526016	-266.147888
1485.859571	-345.248413	-104.175339	-250.542953
1485.862901	-337.825806	-103.181778	-233.827591
1485.866227	-329.935730	-102.129745	-219.216248
1485.869568	-321.636475	-101.019287	-205.715378
1485.872894	-313.746338	-98.856812	-192.272949
1485.876264	-305.330200	-97.337219	-179.882523
1485.879558	-297.323181	-95.466980	-168.193451
1485.882901	-288.439514	-93.304504	-157.264175
1485.886236	-280.724731	-91.025131	-147.796021
1485.889560	-273.711304	-89.563995	-137.451202
1485.892899	-266.230286	-87.050842	-128.918182
1485.896232	-257.989502	-85.881943	-120.677383
1485.899560	-251.560501	-83.485672	-113.137932
1485.902897	-244.722397	-82.082993	-106.533607
1485.906228	-237.533615	-79.277618	-99.520172
1485.910525	-224.734055	-76.647568	-88.064880
1485.913782	-218.655746	-74.426651	-82.395676
1485.917070	-212.928116	-73.140854	-77.544716
1485.920030	-207.901810	-71.445938	-73.044418
1485.923314	-201.881943	-70.160141	-70.005264
1485.926652	-196.797195	-68.406784	-64.219170
1485.929561	-192.296921	-67.296310	-60.478668
1485.932894	-187.738144	-65.776733	-57.731739
1485.936220	-182.711868	-64.257156	-54.458797
1485.939563	-178.211563	-63.497372	-51.419640
1485.942895	-173.769730	-61.919346	-48.146702
1485.946222	-169.327881	-61.042660	-45.107544
1485.949557	-165.061386	-59.873753	-42.302166
1485.952931	-161.437744	-58.003506	-39.905907
1485.956227	-157.755707	-57.477497	-37.042084
1485.959561	-152.963181	-56.308590	-34.821159
1485.962921	-148.638229	-54.964352	-31.431328
1485.966218	-144.722397	-53.561657	-29.561077
1485.969560	-141.800125	-53.035648	-27.164822
1485.972889	-137.299820	-51.632961	-25.879021
1485.976220	-133.851547	-50.697834	-23.190533
1485.979557	-129.701920	-49.412037	-21.086502
1485.983728	-122.746933	-47.015781	-16.878433
1485.987122	-120.409119	-46.080654	-15.066631
1485.990431	-116.668625	-44.444180	-13.254826
1485.993329	-113.746338	-44.035069	-12.027470
1485.996665	-110.181183	-43.041492	-9.864994
1486.000047	-107.258911	-41.697254	-9.046761
1486.002888	-104.921097	-40.645237	-7.118061
1486.006249	-101.765045	-39.593220	-5.890713
1486.009549	-98.901230	-38.482761	-4.312687
1486.012887	-96.446533	-37.898304	-3.728233
1486.016220	-93.056686	-36.554066	-2.383987
1486.019556	-91.361771	-36.203396	-1.156639
1486.022883	-89.140854	-34.976036	-0.046173
1486.026215	-87.387497	-34.391582	-0.338402
1486.029551	-85.809464	-33.573349	0.772064
1486.032878	-83.413208	-32.930447	1.824081
1486.036216	-81.718292	-32.229103	1.531845
1486.039544	-79.848038	-31.060196	2.466972
1486.042882	-78.679138	-30.417301	2.233192
1486.046214	-76.458221	-29.715958	2.583862
1486.049566	-75.464645	-29.189945	3.285210
1486.053806	-72.367035	-28.196381	3.986549
1486.057152	-71.022797	-27.845707	4.103439
1486.060484	-69.912338	-27.728817	4.980125
1486.063738	-68.801865	-27.319695	4.921677
1486.066631	-68.275864	-26.559902	4.220337
1486.069976	-66.580948	-26.033897	4.395676
1486.073297	-65.821152	-25.975449	4.687897
1486.076209	-65.470474	-26.092342	4.512566
1486.079542	-63.658676	-25.449444	4.921677
1486.082877	-63.541794	-25.040325	4.980125
1486.086214	-62.898880	-24.689651	4.571007
1486.089538	-61.262421	-24.514320	4.921677
1486.092901	-60.502640	-24.514320	5.038567
1486.096207	-59.333733	-24.514320	5.915253
1486.099544	-58.690819	-23.929867	5.447685
1486.102873	-57.989479	-23.403854	5.447685
1486.106207	-56.937469	-22.994740	5.506134
1486.109542	-56.236122	-23.111633	5.856812
1486.112892	-55.768562	-22.410290	5.856812
1486.116207	-54.482758	-22.351841	6.207481
1486.119537	-54.190529	-21.942722	6.382812
1486.122880	-52.846291	-21.767387	6.733482
1486.127056	-50.917587	-21.358269	7.084160
1486.130385	-50.391594	-21.124489	7.201050
1486.133747	-49.631798	-20.656925	7.843948
1486.136634	-49.222672	-20.481590	8.077728
1486.139984	-47.995331	-20.072472	8.954407
1486.143323	-47.293983	-20.423145	8.194626
1486.146206	-46.592644	-19.955582	8.369957
1486.149533	-45.891296	-19.546463	9.655754
1486.152882	-45.306839	-18.728230	9.480423
1486.156201	-44.897720	-19.137344	8.720627
1486.159538	-43.962601	-18.728230	9.480423
1486.162866	-43.845703	-18.436001	9.129745
1486.166206	-43.378136	-18.260666	10.357094
1486.169534	-42.793694	-17.500877	9.480423
1486.172870	-42.676796	-17.208649	10.181763
1486.176209	-42.150795	-17.267094	9.655754
1486.179540	-41.858566	-17.267094	9.597313
1486.182867	-41.507889	-17.150204	10.240204
1486.186217	-41.800117	-16.507305	9.597313
1486.189533	-41.274109	-16.215080	9.188187
1486.192868	-41.391006	-16.741089	9.188187
1486.196201	-41.449448	-16.156635	9.772644
1486.200398	-41.098770	-16.331970	8.837517
1486.203809	-40.514313	-16.215080	9.538864
1486.207144	-40.864990	-15.981297	9.012856
1486.210010	-40.689659	-16.624195	8.545296
1486.213285	-40.806541	-16.916424	8.545296
1486.216618	-40.280533	-16.507305	8.545296
1486.219532	-40.222099	-16.682644	9.012856
1486.222866	-40.631210	-16.857979	8.720627
1486.226198	-40.572762	-17.500877	8.194626
1486.229544	-39.579185	-16.974869	8.837517
1486.232862	-39.871422	-17.325542	8.486847
1486.236202	-39.871422	-17.267094	8.253067
1486.239532	-39.286972	-17.267094	9.129745
1486.242861	-40.163651	-17.091759	8.136177
1486.246190	-39.462303	-16.682644	8.311516
1486.249523	-39.579185	-17.150204	8.779076
1486.252862	-39.286972	-17.793102	8.369957
1486.256193	-39.988312	-17.325542	8.954407
1486.259531	-39.579185	-16.741089	8.662186
1486.262865	-39.462303	-16.682644	9.071297
1486.266191	-39.286972	-16.916424	9.012856
1486.269521	-38.936295	-16.565750	8.662186
1486.273725	-38.702515	-17.150204	8.779076
1486.277041	-38.819412	-16.857979	8.837517
1486.280372	-38.702515	-16.857979	9.831093
1486.283282	-38.702515	-17.033314	8.895966
1486.286619	-38.819412	-16.799534	9.363525
1486.289944	-38.527176	-17.033314	9.889534
1486.292854	-38.410278	-16.682644	9.480423
1486.296190	-38.644066	-16.857979	9.655754
1486.299520	-39.286972	-17.033314	9.947983
1486.302854	-38.877846	-16.974869	10.415543
1486.306187	-39.286972	-17.033314	9.714203
1486.309535	-39.520752	-16.974869	9.655754
1486.312911	-39.228523	-17.091759	10.415543
1486.316207	-39.579185	-17.091759	10.415543
1486.319519	-39.812973	-17.442432	10.473984
1486.322852	-40.455879	-17.325542	9.655754
1486.326181	-40.046753	-17.617767	9.947983
1486.329519	-40.806541	-18.026886	10.064873
1486.332855	-41.098770	-17.150204	10.590881
1486.336181	-42.209229	-18.026886	9.947983
1486.339523	-41.800117	-17.793102	9.421974
1486.342851	-42.150795	-18.260666	9.480423
1486.347031	-42.735245	-18.611340	9.246635
1486.350394	-43.845703	-18.962009	9.188187
1486.353292	-44.663940	-18.962009	8.545296
1486.356628	-44.605492	-19.488018	8.253067
1486.359960	-44.897720	-19.955582	7.727058
