time (s)	magX	magY	magZ
1909.933821	-172.133255	-105.227356	-70.765053
1909.937168	-177.919342	-108.850967	-76.784927
1909.940487	-183.997650	-112.357697	-83.155464
1909.943818	-189.433060	-116.156631	-89.467567
1909.947150	-196.446518	-119.780243	-96.539452
1909.950487	-203.050858	-123.754532	-104.137344
1909.953818	-208.778488	-127.787262	-113.137932
1909.957153	-215.149033	-131.469315	-121.203384
1909.960486	-221.402695	-135.443604	-131.314438
1909.963817	-228.708359	-139.710114	-141.776154
1909.967170	-235.955582	-143.918182	-152.646988
1909.970481	-242.501480	-148.067810	-164.452957
1909.973816	-249.105789	-152.392746	-176.083572
1909.977157	-255.593216	-156.483932	-189.233795
1909.981413	-269.035645	-163.731155	-216.527771
1909.984764	-276.516663	-167.880783	-232.483353
1909.988044	-282.536560	-171.679718	-247.737579
1909.990909	-289.023987	-175.011108	-264.569824
1909.994239	-295.628296	-178.517838	-282.629456
1909.997593	-301.531250	-181.440109	-301.741089
1910.000479	-307.200500	-183.602570	-321.028076
1910.003842	-311.992981	-186.407944	-341.600830
1910.007145	-316.843933	-188.511993	-363.985382
1910.010489	-320.467590	-189.914673	-385.960846
1910.013812	-325.201660	-190.732910	-409.689667
1910.017145	-328.533020	-190.440674	-434.528931
1910.020475	-329.585022	-190.557571	-458.842194
1910.023808	-330.578613	-189.564011	-485.960846
1910.027148	-330.637024	-187.343063	-511.618347
1910.030481	-329.643494	-184.888382	-538.736938
1910.033807	-327.656311	-180.972519	-566.790771
1910.037147	-323.156067	-176.355362	-593.967896
1910.040481	-316.785522	-171.095276	-620.209839
1910.043819	-309.655151	-164.315613	-647.328491
1910.047174	-300.829956	-157.652832	-674.447144
1910.050475	-289.549988	-149.119812	-714.832886
1910.054670	-263.424927	-129.715958	-748.906494
1910.057993	-247.001755	-118.085327	-770.765015
1910.061347	-229.351273	-106.396271	-791.396240
1910.064224	-209.713638	-93.596725	-809.514282
1910.067569	-189.316208	-79.920502	-825.879028
1910.070923	-166.054947	-66.068970	-840.373535
1910.073808	-142.676804	-52.100521	-851.887207
1910.077140	-117.603745	-37.547634	-861.121582
1910.080467	-91.478668	-22.527180	-867.375244
1910.083806	-64.476913	-7.798946	-871.700195
1910.087140	-36.890709	7.163061	-871.466431
1910.090496	-9.304497	22.300409	-870.823486
1910.093808	18.281704	37.788429	-866.381714
1910.097139	45.225014	52.107536	-859.017578
1910.100472	72.694328	65.082413	-849.140259
1910.103806	98.118057	78.407944	-837.392700
1910.107139	123.483337	91.207474	-823.132080
1910.110474	147.855057	103.422562	-806.884277
1910.113800	170.765640	114.585617	-789.467529
1910.117134	192.215073	124.872009	-769.713013
1910.120471	211.969604	134.515488	-748.555786
1910.125133	247.504379	151.815323	-703.026855
1910.128010	263.167725	159.237869	-679.064331
1910.131399	276.960846	165.433075	-653.932739
1910.134271	288.766815	170.400940	-628.625977
1910.137566	299.286957	175.368790	-602.150269
1910.140899	307.410858	179.518402	-577.018677
1910.143801	314.599670	182.849792	-550.893616
1910.147135	320.268860	185.596725	-525.177734
1910.150466	324.769165	187.408524	-499.344849
1910.153803	327.399170	188.752777	-474.856201
1910.157129	329.269409	189.220337	-450.542969
1910.160461	329.912354	189.629456	-425.820587
1910.163802	328.977173	188.752777	-401.916443
1910.167132	327.691406	187.233185	-379.298065
1910.170466	325.412048	185.772049	-357.147278
1910.173802	322.197510	183.609589	-336.516083
1910.177151	317.872589	181.505539	-315.826416
1910.180461	312.904724	178.407944	-296.422577
1910.183793	308.112213	174.842773	-278.070740
1910.187128	303.319702	171.102280	-261.063110
1910.190460	297.299805	167.712448	-243.763306
1910.193792	291.046173	163.329041	-227.281708
1910.198057	277.428406	154.737579	-197.240799
1910.201328	270.298096	150.587967	-183.623016
1910.204641	263.050842	145.620102	-170.823502
1910.207590	255.920517	140.769150	-158.959091
1910.210885	248.205719	136.035065	-147.971375
1910.214217	240.841614	131.476334	-138.210999
1910.217127	233.711273	127.443604	-127.457047
1910.220453	226.697845	122.767975	-117.696671
1910.223789	219.625946	118.618347	-110.215668
1910.227126	213.313858	114.410278	-102.091766
1910.230459	206.651077	110.202225	-94.669205
1910.233788	199.871414	106.227936	-88.298660
1910.237150	193.793106	102.721222	-81.577446
1910.240478	187.247223	98.863815	-76.434250
1910.243794	181.052017	95.590881	-70.063705
1910.247121	175.850372	92.376389	-63.517830
1910.250481	170.473419	88.635880	-58.959091
1910.253788	164.862640	85.187607	-54.575691
1910.257123	159.661011	82.090012	-50.309177
1910.260457	154.576263	79.459961	-45.925777
1910.263794	149.316193	76.654587	-42.652840
1910.267120	145.049683	74.141434	-39.146118
1910.271320	135.581528	68.939804	-31.782001
1910.274663	131.782578	66.368210	-29.677971
1910.278043	127.399185	64.673294	-27.340157
1910.280938	122.840439	62.452366	-24.242550
1910.284236	118.690826	60.289890	-21.904736
1910.287594	115.300995	57.893631	-19.917595
1910.290450	111.560486	56.374050	-18.105789
1910.293809	107.293976	54.445354	-16.352428
1910.297113	103.904144	52.984222	-14.832851
1910.300449	100.572769	50.763298	-12.670372
1910.303786	97.358269	49.243717	-10.800121
1910.307137	94.085327	48.016365	-8.579197
1910.310446	90.987724	46.613678	-8.111633
1910.313781	88.474579	45.152542	-6.358276
1910.317122	85.260086	43.165398	-4.897141
1910.320450	82.922264	42.171829	-5.014030
1910.323785	80.175339	40.710693	-4.078903
1910.327119	78.597313	39.191116	-2.793106
1910.330447	75.324371	37.963764	-1.565750
1910.333778	73.220337	36.970192	-0.279953
1910.337129	70.765633	35.625950	0.479836
1910.340446	68.603157	34.281708	1.064285
1910.344695	63.927528	32.177673	1.590294
1910.348043	62.232613	30.774986	1.940971
1910.351305	60.187023	29.781414	1.940971
1910.354208	58.959671	29.547632	2.700752
1910.357542	56.972530	27.560492	3.226768
1910.360880	55.160725	27.034483	3.285210
1910.363781	54.167152	26.040913	3.285210
1910.367140	52.063118	25.164230	4.746346
1910.370440	50.718876	24.813559	3.928108
1910.373775	49.725304	23.644651	4.980125
1910.377109	48.497955	22.592636	4.746346
1910.380452	47.621273	21.949738	5.389236
1910.383773	46.335476	21.599064	4.804787
1910.387105	45.283459	20.663940	4.980125
1910.390448	43.646988	20.371712	5.447685
1910.393793	42.711861	19.904148	5.798363
1910.397117	41.835182	19.436586	5.973701
1910.400444	40.666275	18.793688	5.506134
1910.403772	39.964931	17.800117	6.207481
1910.407106	39.088253	17.741671	6.149033
1910.410471	38.562244	16.981882	5.681473
1910.413773	37.393337	16.864990	5.097015
1910.417951	35.172413	16.222092	5.798363
1910.421285	35.113968	16.397429	5.973701
1910.424671	34.120396	15.286966	6.499702
1910.427524	33.243717	14.936295	6.382812
1910.430888	32.776154	14.994740	5.739922
1910.434215	32.133255	15.111630	5.564583
1910.437102	30.964348	13.942723	5.213905
1910.440432	30.087669	14.059614	5.798363
1910.443779	29.736996	13.124489	6.324371
1910.447105	29.444771	13.299825	5.798363
1910.450434	28.392754	13.066044	6.324371
1910.453804	27.808300	12.423145	6.032143
1910.457100	27.632965	12.364699	6.441261
1910.460434	27.516071	12.364699	6.558151
1910.463765	26.697834	11.955582	5.798363
1910.467126	26.054935	12.072473	5.681473
1910.470438	25.996490	11.078901	5.856812
1910.473765	25.353592	11.488018	5.272346
1910.477105	25.002922	11.254236	6.324371
1910.480437	24.301575	11.078901	6.149033
1910.483761	23.892460	10.669783	6.032143
1910.487104	23.074226	10.494448	5.798363
1910.491302	22.898888	9.851549	6.090591
1910.494689	22.022209	10.260666	6.032143
1910.497580	22.314434	10.026884	6.149033
1910.500873	21.028637	9.033314	6.090591
1910.504201	21.145527	8.799532	5.856812
1910.507515	20.911747	9.267096	6.090591
1910.510430	20.093513	9.617767	6.441261
1910.513761	19.684395	8.916424	6.032143
1910.517099	20.151958	9.091759	6.149033
1910.520436	20.502628	8.974869	5.973701
1910.523784	19.859730	9.033314	6.032143
1910.527088	19.567505	8.741087	6.850380
1910.530428	19.216831	8.857979	6.324371
1910.533761	19.567505	8.916424	6.908829
1910.537097	19.509060	8.273525	6.967270
1910.540427	19.099941	7.572180	6.675041
1910.543763	18.807716	8.156633	6.032143
1910.547089	18.573933	8.098188	6.558151
1910.550424	18.457043	7.747517	5.623024
1910.553758	17.989479	8.098188	5.564583
1910.557091	17.872589	7.864407	5.856812
1910.561706	17.872589	7.922853	6.032143
1910.564614	17.521919	7.922853	6.090591
1910.567960	17.521919	8.215080	5.506134
1910.571293	17.229687	8.039743	5.506134
1910.574189	17.521919	7.805962	5.155457
1910.577539	17.288136	7.338398	6.032143
1910.580870	17.112797	7.455288	6.324371
1910.583755	17.463470	7.689072	5.506134
1910.587093	17.171246	7.455288	5.915253
1910.590430	17.288136	7.221508	5.739922
1910.593761	16.995907	7.338398	5.798363
1910.597125	16.586792	7.279953	5.038567
1910.600417	16.995907	6.929281	4.980125
1910.603755	16.820572	7.221508	5.330795
1910.607087	17.054356	7.805962	6.441261
1910.610445	17.346581	7.572180	6.149033
1910.613749	16.353012	7.279953	5.272346
1910.617084	17.463470	7.747517	6.207481
1910.620420	16.586792	6.987726	6.499702
1910.623755	17.229687	7.279953	6.207481
1910.627084	16.645233	7.805962	5.564583
1910.630416	16.119228	7.338398	6.382812
1910.634616	16.586792	7.513733	6.149033
1910.638017	16.762127	7.572180	6.558151
1910.641367	16.528343	7.572180	6.324371
1910.644256	16.703682	7.163061	6.207481
1910.647509	16.645233	7.396843	5.739922
1910.650845	17.288136	7.396843	6.441261
1910.653770	17.405025	7.922853	5.798363
1910.657083	17.112797	7.922853	6.675041
1910.660426	18.164814	7.455288	6.207481
1910.663749	17.171246	7.572180	5.447685
1910.667082	17.697250	7.864407	5.915253
1910.670414	18.223263	7.572180	6.090591
1910.673744	17.814140	7.455288	5.506134
1910.677083	18.164814	7.630627	5.915253
1910.680410	18.164814	7.455288	5.915253
1910.683764	19.392170	7.513733	5.973701
1910.687077	19.392170	7.981298	6.324371
1910.690411	19.742840	8.215080	5.973701
1910.693748	19.509060	8.098188	6.616592
1910.697081	19.976624	8.565752	6.090591
1910.700411	20.093513	8.799532	6.149033
1910.703746	20.093513	8.390415	5.915253
1910.708010	21.145527	8.331970	5.915253
1910.711263	20.736412	8.390415	5.681473
1910.714633	21.203976	8.565752	5.564583
1910.717502	21.613091	8.857979	4.980125
1910.720841	21.262421	8.974869	5.389236
1910.724168	22.197544	9.267096	5.681473
1910.727085	22.255989	9.617767	6.090591
1910.730405	23.249561	9.617767	6.850380
1910.733735	22.957333	10.085331	6.675041
1910.737075	23.834015	10.611338	5.798363
1910.740405	23.658676	10.494448	6.032143
1910.743739	24.243130	10.494448	5.447685
1910.747128	24.535358	10.143776	6.032143
1910.750408	24.652248	11.254236	5.623024
1910.753742	25.002922	10.962009	5.506134
1910.757100	25.704266	11.137346	5.506134
1910.760405	26.580944	11.546463	6.032143
1910.763737	26.405609	11.488018	6.733482
1910.767071	26.814728	12.014026	6.616592
1910.770421	27.106953	12.014026	6.616592
1910.773738	27.749855	11.897135	6.032143
1910.777074	28.568089	12.306254	6.032143
1910.781268	29.210987	12.364699	5.681473
1910.784605	29.970776	12.598481	5.798363
1910.787949	30.789013	12.540035	5.856812
1910.790856	31.139683	13.066044	5.915253
1910.794218	31.899471	13.533607	4.687897
1910.797548	32.717709	13.767387	5.272346
1910.800424	33.886616	14.001169	5.038567
1910.803734	34.412621	14.059614	5.213905
1910.807067	34.587959	14.936295	5.564583
1910.810406	35.873756	14.760959	5.097015
1910.813745	36.458210	15.228521	4.687897
1910.817063	37.685562	15.988311	4.278778
1910.820397	38.854469	16.689655	4.687897
1910.823731	39.263588	16.631210	4.454117
1910.827067	40.958504	17.040327	4.629456
1910.830399	41.367622	17.507889	5.097015
1910.833736	42.828754	17.741671	3.986549
1910.837067	44.231445	18.852133	4.161888
1910.840397	44.874344	19.319695	3.343658
1910.843753	46.335476	19.611923	3.694328
1910.847059	47.387489	20.547049	3.226768
1910.850394	48.731735	20.547049	2.817642
1910.854645	50.894211	22.066628	2.992981
1910.858002	52.063118	23.469316	2.700752
1910.861244	53.699593	23.703098	2.057861
1910.864150	55.803623	24.988895	1.765633
1910.867486	56.797195	25.222677	0.830505
1910.870821	58.375217	26.157803	0.421387
1910.873723	60.187023	26.333138	0.947395
1910.877058	61.881939	27.034483	0.246048
1910.880393	63.401520	29.021626	0.479836
1910.883727	65.096436	30.132086	-0.513733
1910.887074	67.492691	31.184103	-1.039749
1910.890398	70.356514	31.476330	-1.799530
1910.893723	72.402100	32.879017	-2.442436
1910.897062	74.506134	33.580360	-3.143776
1910.900392	76.960838	34.924606	-3.319111
1910.903724	79.766220	36.210403	-4.429577
1910.907060	82.279366	37.087082	-4.663357
1910.910391	85.026299	38.197548	-6.007603
1910.913769	87.130333	38.898888	-7.293400
1910.917064	90.169495	40.593803	-8.696087
1910.920393	92.974869	41.821159	-10.449448
1910.923724	96.072472	42.814728	-11.267685
1910.927899	101.917007	45.269432	-13.313274
1910.931270	105.482178	47.315018	-14.949741
1910.934589	108.930450	48.659264	-16.936882
1910.937478	112.787842	50.587959	-18.865578
1910.940833	116.995911	51.113968	-19.859150
1910.944164	121.203972	52.867329	-22.430744
1910.947052	124.886032	54.562244	-24.534779
1910.950385	129.444763	57.016949	-27.281712
1910.953800	133.711273	58.828754	-29.385742
1910.957049	138.679138	60.874344	-31.665112
1910.960381	143.880768	62.686150	-34.353596
1910.963715	148.497955	65.549973	-38.210991
1910.967050	153.933380	67.244888	-41.951492
1910.970382	159.427246	69.524261	-45.691994
1910.973746	164.921097	71.978958	-49.374054
1910.977055	170.356506	74.725891	-53.289894
1910.980380	176.493286	77.297485	-58.608418
1910.983719	182.513153	79.752197	-64.043839
1910.987071	188.533020	82.382233	-70.531273
1910.990381	195.312683	85.362946	-76.025131
1910.993715	201.741669	88.402100	-82.804794
1910.997921	215.008774	94.655762	-97.416130
1911.001324	222.372879	97.402695	-105.364700
1911.004664	229.152542	100.558731	-113.780838
1911.007497	236.925766	103.539459	-122.956757
1911.010806	243.530090	106.286377	-132.015778
1911.014136	250.660431	108.799530	-141.600830
1911.017084	257.673889	112.306259	-153.114563
1911.020382	264.979553	114.819412	-164.336060
1911.023713	272.168335	117.800110	-176.434250
1911.027041	279.181763	120.196381	-189.467560
1911.030398	286.428955	122.008179	-203.143768
1911.033715	294.728210	124.345993	-217.930450
1911.037041	301.507874	126.625366	-232.775574
1911.040379	308.053772	128.495621	-249.257172
1911.043712	314.891907	129.898300	-266.323212
1911.047040	321.145538	131.125656	-284.149048
1911.050378	326.990051	132.236115	-302.325531
1911.053710	333.594421	132.703690	-321.612488
1911.057036	338.796021	132.645233	-341.250153
1911.060402	343.296326	131.943893	-362.582703
1911.063705	347.855042	131.943893	-385.493286
1911.067038	350.952637	131.125656	-409.163635
1911.071296	355.160706	126.333145	-458.023987
1911.074572	356.037415	122.943314	-482.395660
1911.077884	355.569824	119.261246	-507.819397
1911.080802	352.998230	114.585617	-534.411987
1911.084134	349.608398	109.267090	-561.472290
1911.087464	344.815918	103.247223	-588.064941
1911.090366	339.263611	96.350677	-614.598999
1911.093703	331.139709	89.103447	-640.315063
1911.097036	321.087097	80.453537	-666.673828
1911.100369	310.040894	71.219170	-692.272949
1911.103707	297.825836	61.341908	-716.527710
1911.107032	282.746948	50.997078	-741.367065
1911.110373	267.142029	39.541786	-763.634644
1911.113795	248.381073	27.268265	-784.499756
1911.117039	227.808304	14.585622	-803.903564
1911.120368	207.060196	1.844536	-821.670898
1911.123703	183.974274	-11.890121	-837.860352
1911.127038	160.128571	-25.390995	-850.835205
1911.130365	135.756866	-39.067211	-863.167114
1911.133703	109.748688	-53.853893	-871.174194
1911.137039	82.863823	-68.406784	-876.375854
1911.140399	56.154297	-82.842789	-880.291626
1911.144544	1.858559	-111.422562	-878.421387
1911.147934	-24.850967	-125.624786	-872.635376
1911.151245	-51.268265	-139.125656	-865.271240
1911.154145	-76.925781	-152.568100	-855.452393
1911.157478	-101.706604	-164.607834	-842.009888
1911.160852	-125.435425	-176.296890	-826.814087
1911.163697	-147.644669	-187.518417	-810.274048
1911.167026	-168.217422	-197.454117	-791.220947
1911.170361	-187.445953	-207.097595	-770.881958
1911.173697	-205.213333	-214.929291	-747.796021
1911.177030	-221.636459	-222.644058	-724.417847
1911.180362	-236.364700	-228.956177	-699.987671
1911.183697	-250.216232	-234.508484	-674.388672
1911.187031	-261.963745	-239.534790	-647.796021
1911.190384	-272.483948	-243.684418	-621.086548
1911.193701	-280.666260	-246.431335	-594.552246
1911.197028	-286.803040	-248.360046	-568.251953
1911.200365	-293.232056	-249.178253	-540.782593
1911.203707	-297.615417	-250.230286	-514.540649
1911.207023	-299.602600	-249.295166	-488.357086
1911.210361	-301.648193	-247.658691	-462.407379
1911.213697	-302.700195	-246.197540	-437.977203
1911.217950	-300.596130	-240.586792	-389.467560
1911.221287	-299.018127	-237.489197	-366.206299
1911.224594	-296.037415	-233.690247	-344.523102
1911.227458	-292.355347	-229.073059	-324.242554
1911.230779	-288.381104	-224.806549	-305.189362
1911.234146	-283.763916	-219.955582	-286.253052
1911.237024	-278.562256	-215.279953	-268.251892
1911.240357	-273.535950	-209.610764	-250.367630
1911.243692	-267.925171	-203.941559	-233.710709
1911.247043	-262.139099	-199.265930	-218.222672
1911.250361	-255.885452	-193.888962	-203.903564
1911.253687	-250.274704	-187.109299	-189.818237
1911.257026	-243.787277	-181.264755	-177.661606
1911.260354	-237.942734	-176.121567	-165.855652
1911.263687	-231.338394	-170.101700	-154.283463
1911.267025	-224.441849	-164.958511	-143.880188
1911.270356	-218.421982	-159.055527	-134.587372
1911.273688	-211.759201	-154.146118	-124.768555
1911.277049	-205.038010	-149.119812	-115.358856
1911.280366	-199.544113	-143.567505	-107.527176
1911.283685	-193.056717	-139.242554	-100.046173
1911.287018	-187.738144	-134.976028	-92.682060
1911.291224	-176.049088	-125.624786	-80.174759
1911.294529	-171.081238	-121.825836	-73.921104
1911.297883	-166.639404	-117.267105	-68.602577
1911.300782	-161.028641	-113.760376	-63.693165
1911.304108	-156.119232	-110.370544	-58.959091
1911.307477	-151.209824	-106.630051	-53.699009
1911.310353	-146.534180	-103.123322	-49.666279
1911.313687	-141.800125	-99.441269	-45.925777
1911.317012	-137.416718	-96.577438	-42.535950
1911.320371	-132.682632	-93.362946	-39.379898
1911.323687	-128.533020	-89.505554	-35.931625
1911.327018	-124.558731	-87.343079	-32.775574
1911.330351	-119.941559	-85.180588	-29.970196
1911.333690	-117.194626	-82.550552	-27.866165
1911.337013	-113.395676	-79.803619	-25.060783
1911.340351	-109.187622	-77.348907	-22.489189
1911.343682	-106.090012	-75.420227	-20.618938
1911.347010	-102.933960	-72.848633	-18.748688
1911.350349	-99.485687	-70.803040	-17.170666
1911.353684	-96.271194	-68.874344	-15.125076
1911.357019	-93.524246	-67.179428	-13.722385
1911.361212	-87.796616	-62.971363	-10.507889
1911.364585	-85.341904	-60.691990	-9.222092
1911.367953	-82.945648	-58.529514	-8.286968
1911.370792	-80.490952	-57.419048	-7.118061
1911.374129	-78.211563	-55.782581	-5.715374
1911.377452	-75.932205	-54.379894	-5.130920
1911.380758	-73.652847	-53.035648	-4.254242
1911.383672	-72.191696	-51.282291	-4.312687
1911.387007	-70.438339	-48.944477	-3.026886
1911.390340	-68.217422	-47.658680	-2.793106
1911.393672	-66.639389	-46.723553	-1.741089
1911.397006	-64.710693	-45.671535	-0.513733
1911.400342	-63.191116	-44.561069	-0.630623
1911.403670	-61.905319	-43.742840	0.129158
1911.407022	-60.093506	-42.223263	0.421387
1911.410340	-58.398590	-41.054356	0.596725
1911.413672	-57.346581	-39.885448	1.473404
1911.417007	-55.885445	-39.417881	1.824081
1911.420339	-54.190529	-38.599651	1.239624
1911.423676	-53.313850	-37.313854	2.350082
1911.427009	-51.560501	-36.378727	2.291641
1911.430337	-50.508476	-35.268261	3.226768
1911.434648	-47.936882	-33.631794	3.226768
1911.437856	-47.235535	-33.105785	2.992981
1911.441191	-46.300415	-31.936882	3.694328
1911.444140	-44.839272	-31.819988	4.395676
1911.447417	-44.137932	-30.300411	3.694328
1911.450769	-43.436584	-29.949738	3.752769
