time (s)	magX	magY	magZ
1733.456029	21.974285	-133.289886	12.438332
1733.459366	23.552311	-140.069550	15.360603
1733.462735	25.422564	-146.440094	18.575096
1733.466026	27.351259	-153.745758	22.958504
1733.469361	28.987730	-161.635880	27.108124
1733.472697	31.559324	-169.000015	30.731735
1733.476028	33.137352	-177.708374	37.219170
1733.479364	35.182938	-186.182938	41.894798
1733.482697	38.864994	-196.235535	48.966682
1733.486028	41.202808	-205.645233	57.441261
1733.489358	44.651085	-216.340729	66.441841
1733.492689	47.924023	-226.510223	75.500877
1733.496023	51.372299	-238.433075	86.780830
1733.499355	54.879021	-248.719452	98.995903
1733.502727	59.729984	-261.109894	112.613670
1733.507322	68.496788	-283.728210	143.940369
1733.510213	73.172417	-296.410889	162.818207
1733.513544	78.198715	-307.632385	183.040344
1733.516921	84.277031	-320.081238	203.846863
1733.519790	89.712448	-331.419647	228.335480
1733.523171	96.433670	-342.933380	255.103455
1733.526477	102.453537	-354.563995	283.274109
1733.529357	110.051437	-364.967285	314.250153
1733.532689	118.876678	-375.253662	347.856232
1733.536031	127.468155	-384.312714	384.852142
1733.539359	136.994736	-392.611908	424.185852
1733.542685	147.105789	-397.930450	464.571594
1733.546021	158.035065	-400.911163	506.126221
1733.549391	169.431915	-402.781433	550.661621
1733.552691	181.530106	-399.917572	594.963196
1733.556028	193.862076	-395.008148	641.135010
1733.559354	206.135605	-387.118073	684.852112
1733.562688	219.694916	-373.500275	729.504395
1733.566014	233.254242	-358.129150	772.578613
1733.569355	245.644669	-338.316193	813.022766
1733.572682	258.268860	-312.775574	849.609619
1733.576018	270.191681	-284.897125	881.403870
1733.579354	282.231445	-251.524841	924.068970
1733.583662	299.998840	-178.643494	948.206848
1733.586941	308.122742	-137.147293	956.915222
1733.589852	314.610168	-93.897720	960.655762
1733.593144	319.344238	-48.602570	959.019348
1733.596442	321.331390	-3.541203	949.551147
1733.599784	322.500305	41.753944	935.115112
1733.602682	320.746918	86.639977	916.704834
1733.606012	317.824646	129.947983	891.281067
1733.609350	314.084167	171.035065	863.928650
1733.612686	307.655182	209.199875	832.251343
1733.616019	299.765045	244.500870	798.879028
1733.619348	291.699585	276.587372	762.759827
1733.622684	282.640564	304.641144	725.530090
1733.626009	272.003510	329.421967	686.956177
1733.629343	260.489777	350.871429	648.148437
1733.632684	250.320282	367.820557	609.749878
1733.636023	237.988312	381.555206	570.591431
1733.639345	225.597900	390.906494	532.718872
1733.642676	213.558167	398.387512	494.904724
1733.646013	202.219757	402.011108	457.791931
1733.649341	190.472244	403.472229	424.594971
1733.653578	167.503220	397.101685	357.908844
1733.656863	157.275284	392.250732	327.867920
1733.660187	147.807129	384.360596	299.697266
1733.663538	137.988312	374.775574	272.753937
1733.666456	129.163055	364.196960	247.973114
1733.669766	121.039169	354.085907	224.594971
1733.672674	112.506134	341.461731	202.561066
1733.676015	105.492691	328.779083	182.981873
1733.679341	98.362366	315.628845	164.337799
1733.682671	91.874931	302.244873	147.856201
1733.686010	85.971947	289.270020	132.718872
1733.689394	80.653419	276.704254	118.575096
1733.692673	74.984222	263.963165	106.009346
1733.696041	70.250153	252.215668	93.735832
1733.699340	66.217422	240.526596	83.975441
1733.702673	62.418472	229.363541	75.325539
1733.706007	58.561077	218.960266	66.324944
1733.709352	54.586792	208.615433	58.434837
1733.712672	51.722973	198.329056	50.427818
1733.716001	48.391586	189.562241	44.115715
1733.719344	46.462891	180.795441	38.621857
1733.722678	43.657513	172.028641	32.835762
1733.726873	39.215668	155.956177	23.309174
1733.730217	37.053188	148.767395	18.458206
1733.733604	35.241379	141.344818	14.191696
1733.736447	32.903568	134.915833	11.503212
1733.739804	31.617769	128.662186	8.054932
1733.743098	30.098190	122.408531	4.372879
1733.745995	28.169495	116.388664	2.561073
1733.749331	26.123907	110.953247	-0.068966
1733.752692	25.539455	106.394501	-1.062542
1733.756005	24.779663	100.666855	-3.341911
1733.759337	22.383404	96.225014	-5.387497
1733.762669	21.272942	91.783165	-6.673294
1733.766015	20.454708	87.458206	-8.192871
1733.769338	19.519581	83.659256	-9.069553
1733.772669	17.941559	79.860313	-9.654007
1733.775992	17.240215	76.704269	-10.296909
1733.779331	16.188198	73.080650	-11.290478
1733.782662	15.019287	69.983047	-11.874931
1733.785997	13.908829	66.768555	-12.576275
1733.789332	13.149036	63.437172	-12.342491
1733.792666	12.330803	61.508476	-12.926945
1733.796002	12.038578	59.053772	-13.452957
1733.800270	10.402107	53.910576	-13.686737
1733.803579	10.343662	51.806545	-14.154301
1733.806866	9.700764	49.059612	-14.271191
1733.809754	9.350090	47.773815	-14.914089
1733.813084	8.882526	45.494446	-14.738754
1733.816423	8.648746	42.630627	-13.978962
1733.819328	8.181183	40.701927	-14.738754
1733.822654	7.538284	39.533020	-14.797199
1733.825997	7.713623	37.487434	-15.381653
1733.829328	6.836941	36.493862	-15.323208
1733.832657	6.661606	34.272938	-15.206318
1733.835997	6.603157	33.162476	-14.504974
1733.839320	6.661606	32.402687	-15.381653
1733.842656	5.901814	30.707773	-15.966106
1733.845989	6.252483	29.597311	-15.673882
1733.849327	5.375809	28.077732	-15.147873
1733.852654	5.258919	27.434834	-15.381653
1733.856020	5.200470	25.915253	-15.615433
1733.859325	4.674465	24.804792	-15.849216
1733.862695	4.849796	24.220339	-15.673882
1733.865989	4.499126	23.460548	-15.673882
1733.869335	4.791355	22.642315	-15.089428
1733.873511	4.206902	20.596725	-14.504974
1733.876837	4.206902	20.538280	-14.738754
1733.880194	3.739338	19.369375	-14.446529
1733.883080	3.447109	18.726475	-14.329636
1733.886448	3.271778	18.258913	-14.738754
1733.889768	2.979546	17.908239	-14.680309
1733.892649	2.628876	17.323786	-14.797199
1733.895982	3.037994	16.622442	-14.329636
1733.899333	2.979546	16.037989	-14.271191
1733.902662	2.804214	15.395090	-14.271191
1733.906018	2.921104	15.395090	-13.978962
1733.909315	2.570431	13.933956	-14.271191
1733.912662	2.219761	13.524839	-14.446529
1733.915985	2.044422	13.407949	-14.621864
1733.919317	1.459969	11.654589	-13.686737
1733.922652	1.284630	12.122150	-14.212746
1733.925986	1.284630	11.187027	-14.446529
1733.929318	1.401520	11.128580	-14.212746
1733.932648	0.758625	10.836349	-13.978962
1733.935983	0.758625	10.251896	-14.388084
1733.939312	0.992405	10.018116	-14.388084
1733.942648	1.284630	9.667446	-14.563419
1733.946852	0.583286	9.024544	-13.978962
1733.950250	0.758625	8.673874	-14.446529
1733.953571	0.174171	8.264755	-14.914089
1733.956459	0.349503	8.440094	-14.329636
1733.959738	0.291061	8.089420	-14.329636
1733.963064	0.466393	7.797195	-14.621864
1733.965977	0.992405	6.745178	-14.621864
1733.969323	0.992405	6.686733	-14.095856
1733.972645	0.875515	6.160725	-14.914089
1733.975982	0.641735	5.926945	-14.563419
1733.979316	0.407951	6.219170	-14.095856
1733.982650	0.466393	5.751606	-13.978962
1733.985979	0.524841	5.576271	-13.978962
1733.989310	0.524841	5.693161	-14.271191
1733.992646	0.407951	6.219170	-14.271191
1733.995980	-0.059612	5.342491	-13.102283
1733.999328	-0.001167	5.693161	-13.920521
1734.002643	0.057281	4.758038	-13.336067
1734.005974	0.291061	4.816483	-13.569847
1734.009303	-0.234951	4.933372	-13.452957
1734.012638	0.700176	4.582699	-13.452957
1734.015973	0.466393	4.641144	-13.336067
1734.020229	0.174171	4.816483	-12.926945
1734.023504	0.524841	4.348919	-12.868504
1734.026810	0.115723	4.173584	-13.102283
1734.029728	-0.118061	3.881355	-12.459385
1734.033062	-0.527172	3.881355	-13.277618
1734.036397	0.057281	3.939800	-12.634724
1734.039303	-0.176502	3.764465	-13.745182
1734.042645	-0.059612	3.998245	-13.452957
1734.045975	0.232613	3.939800	-13.219177
1734.049301	0.174171	3.706020	-13.511398
1734.052642	0.524841	3.413795	-12.517830
1734.055966	-0.351841	4.465809	-12.634724
1734.059306	0.115723	3.589130	-13.277618
1734.062637	-0.468731	3.881355	-12.985394
1734.065973	-0.468731	3.530685	-13.043839
1734.069318	-0.702511	3.881355	-13.160728
1734.072636	-0.585621	2.946232	-12.576275
1734.075971	0.115723	3.472240	-13.043839
1734.079342	-0.001167	3.180012	-13.277618
1734.082633	0.232613	3.238457	-12.517830
1734.085986	-0.234951	3.238457	-12.400940
1734.089304	-0.702511	3.063122	-13.336067
1734.093486	-0.234951	3.647575	-12.576275
1734.096840	0.057281	3.355347	-13.043839
1734.100174	-0.234951	3.764465	-12.985394
1734.103112	0.115723	3.063122	-13.219177
1734.106408	-0.001167	3.004677	-13.102283
1734.109749	0.057281	3.413795	-13.219177
1734.112663	0.232613	2.770893	-12.810055
1734.115968	0.232613	3.004677	-12.810055
1734.119300	0.115723	2.770893	-12.810055
1734.122635	0.291061	2.712448	-13.102283
1734.125966	0.115723	2.478668	-13.277618
1734.129335	0.115723	3.004677	-13.569847
1734.132626	0.232613	3.413795	-12.926945
1734.135958	-0.059612	2.829342	-12.985394
1734.139298	-0.001167	3.530685	-12.985394
1734.142650	0.291061	3.530685	-13.219177
1734.145963	0.174171	2.887787	-13.043839
1734.149294	0.349503	3.647575	-12.284050
1734.152632	-0.293392	3.063122	-13.336067
1734.155957	-0.118061	3.296902	-12.868504
1734.159298	0.291061	3.413795	-13.160728
1734.162631	0.291061	3.881355	-13.043839
1734.166910	0.174171	3.530685	-12.517830
1734.170222	0.291061	3.296902	-13.452957
1734.173112	0.115723	4.056694	-13.277618
1734.176392	-0.059612	3.822910	-13.336067
1734.179713	0.057281	3.589130	-12.167160
1734.183049	-0.351841	3.063122	-12.868504
1734.185967	-0.293392	3.881355	-13.160728
1734.189288	-0.001167	3.706020	-12.985394
1734.192624	-0.293392	3.530685	-12.693165
1734.195955	-0.351841	3.647575	-12.400940
1734.199287	-0.059612	4.056694	-12.459385
1734.202624	-0.351841	3.939800	-12.751614
1734.205959	-0.293392	4.641144	-13.043839
1734.209310	-0.001167	4.115139	-12.634724
1734.212620	0.115723	4.115139	-13.803631
1734.215958	-0.001167	4.173584	-13.511398
1734.219287	-0.234951	4.173584	-12.810055
1734.222621	-0.059612	4.290474	-13.102283
1734.225949	-0.410282	4.933372	-12.459385
1734.229290	-0.234951	4.816483	-13.043839
1734.232660	-0.059612	4.816483	-13.043839
1734.237229	-0.059612	4.933372	-13.043839
1734.240132	-0.702511	5.342491	-13.160728
1734.243468	-0.293392	5.284042	-12.868504
1734.246834	0.057281	5.810051	-13.219177
1734.249703	-0.001167	5.576271	-12.926945
1734.253102	-0.234951	5.576271	-13.569847
1734.256393	0.115723	6.160725	-13.569847
1734.259287	-0.118061	6.511395	-13.745182
1734.262619	-0.118061	6.628288	-13.336067
1734.265967	-0.059612	6.920513	-13.043839
1734.269278	-0.293392	7.037403	-12.576275
1734.272618	0.115723	6.978958	-13.452957
1734.275945	0.057281	7.212742	-13.511398
1734.279284	0.466393	7.563412	-13.862072
1734.282612	0.232613	7.738747	-13.803631
1734.285943	-0.118061	8.381645	-13.862072
1734.289284	0.349503	8.206310	-13.511398
1734.292616	0.349503	9.082993	-13.803631
1734.295980	0.232613	9.024544	-13.862072
1734.299279	0.232613	9.199883	-13.686737
1734.302633	-0.001167	9.433662	-13.686737
1734.305942	0.349503	10.193451	-14.504974
1734.310146	0.232613	11.537699	-14.154301
1734.313537	0.174171	11.245472	-14.446529
1734.316897	0.232613	11.479252	-14.154301
1734.319719	0.115723	12.122150	-13.862072
1734.323038	0.466393	12.648159	-14.797199
1734.326375	0.232613	13.291058	-14.388084
1734.329277	0.583286	13.875511	-14.621864
1734.332607	0.232613	13.875511	-13.862072
1734.335943	0.758625	14.050848	-14.563419
1734.339276	0.407951	15.044418	-15.147873
1734.342605	0.407951	15.628872	-15.089428
1734.345937	0.583286	16.447105	-14.797199
1734.349280	0.641735	17.090004	-14.446529
1734.352611	0.466393	16.914669	-14.797199
1734.355942	0.992405	18.258913	-14.621864
1734.359293	1.167740	18.784922	-14.680309
1734.362607	1.050846	19.661600	-15.206318
1734.365940	1.050846	20.655172	-14.797199
1734.369275	1.343079	21.298071	-14.680309
1734.372607	0.875515	21.824078	-15.147873
1734.375934	0.933956	22.466976	-15.673882
1734.379275	1.167740	23.460548	-15.498543
1734.383530	1.167740	25.506136	-15.381653
1734.386785	1.401520	27.025715	-15.615433
1734.390149	1.576859	28.369959	-15.440098
1734.393031	1.927532	29.188194	-15.323208
1734.396361	2.044422	30.766218	-15.498543
1734.399688	2.336651	31.818233	-15.030983
1734.402605	1.752193	32.753361	-14.621864
1734.405937	1.693748	34.857391	-15.030983
1734.409266	1.635300	35.734074	-15.907661
1734.412601	1.810638	37.428989	-14.855644
1734.415934	1.985973	39.182350	-15.089428
1734.419261	2.395092	41.227936	-14.680309
1734.422599	2.044422	42.630627	-14.154301
1734.426013	2.921104	45.377556	-13.686737
1734.429271	2.395092	46.955582	-14.504974
1734.432642	2.395092	49.176506	-14.095856
1734.435932	2.511982	51.338982	-13.628288
1734.439268	2.687325	53.676796	-13.277618
1734.442599	2.628876	56.540619	-12.400940
1734.445957	2.278202	58.936878	-12.108711
1734.449265	1.985973	60.924019	-11.348927
1734.452596	2.161312	63.729401	-11.641148
1734.456785	2.102871	69.398598	-9.887787
1734.460150	2.278202	72.963760	-9.420227
1734.463475	1.693748	76.178253	-8.601990
1734.466380	1.167740	79.275864	-7.433086
1734.469715	0.933956	83.425476	-6.205730
1734.473103	1.343079	86.873756	-5.445942
1734.475925	1.109295	91.432495	-3.458801
1734.479262	0.641735	96.049675	-2.815899
1734.482595	0.232613	100.725311	-0.828758
1734.485927	-0.001167	105.459381	0.164818
1734.489292	-0.176502	110.836357	2.911743
1734.492591	-0.994736	115.570419	4.840439
1734.495926	-0.877846	121.590294	6.184685
1734.499258	-1.696079	127.551727	8.697830
1734.502609	-2.280533	133.454712	11.035645
1734.505925	-2.864986	140.409698	13.548798
1734.509258	-4.033894	147.832260	16.412621
1734.512595	-4.384567	155.079483	20.211571
1734.515928	-4.852127	163.670959	24.653412
1734.519261	-6.021034	171.911743	29.270599
1734.522594	-7.014610	181.263000	34.706017
1734.525923	-8.241962	190.614258	39.732315
1734.530178	-10.755108	211.362366	55.687897
1734.533561	-12.742252	221.824081	64.045586
1734.536869	-14.437168	233.922272	73.338387
1734.539685	-15.898296	244.734665	84.267677
1734.543020	-18.586788	257.241943	95.898293
1734.546371	-20.749264	268.755676	109.165398
1734.549256	-23.379307	280.678558	123.309166
1734.552587	-26.301579	292.484497	138.154297
1734.555925	-30.217419	304.524261	154.518982
1734.559256	-33.724133	315.745758	171.234375
1734.562589	-37.873760	327.668610	190.638214
1734.565914	-42.900059	340.059052	211.327881
1734.569250	-47.341900	351.748108	233.478668
1734.572584	-53.361782	362.677368	258.142609
1734.575939	-59.615429	374.015778	283.683228
1734.579251	-67.154877	383.776154	312.379883
1734.582581	-74.518997	392.893616	342.011688
1734.585919	-82.175323	399.731720	373.279968
1734.589248	-90.825241	406.336060	407.178284
1734.592646	-100.118057	410.135010	442.479248
1734.595927	-109.060196	411.537689	479.767395
1734.599255	-119.989471	409.842773	517.406189
1734.603433	-141.848022	395.932800	598.645203
1734.606800	-153.653992	383.367035	639.732300
1734.610100	-164.875504	368.171234	679.767395
1734.613016	-176.798355	347.540039	722.490967
1734.616341	-186.383408	323.051422	764.396240
1734.619713	-198.423141	292.952087	805.132629
1734.622580	-209.352417	260.865570	844.349548
1734.625918	-218.937469	223.051422	880.351868
1734.629251	-228.697845	181.555237	914.834534
1734.632607	-237.289307	137.195206	945.050842
1734.635942	-244.945648	89.971359	972.578613
1734.639248	-250.322632	40.234364	991.807129
1734.642575	-255.407349	-10.145531	1007.002930
1734.645911	-257.745148	-61.051430	1016.938599
1734.649244	-259.323212	-112.366455	1019.568726
1734.652576	-258.914093	-160.291656	1016.120361
1734.655910	-256.400940	-206.755692	1004.665161
1734.659238	-253.770905	-249.303925	988.651001
1734.662610	-249.270599	-289.338959	964.630127
1734.665911	-242.841614	-326.977783	935.232056
1734.669246	-235.711273	-358.362946	901.158386
1734.672576	-227.587372	-385.890686	861.941589
1734.676795	-208.943298	-426.744019	776.436035
1734.680115	-199.475159	-441.121552	729.855042
1734.683505	-190.007004	-450.472809	683.507874
1734.686358	-179.662170	-456.025146	637.394531
1734.689676	-168.908234	-459.181183	591.748657
1734.692995	-159.206314	-457.603149	547.096436
1734.695906	-149.855057	-453.804199	503.554626
1734.699238	-139.919342	-448.076569	462.467590
1734.702576	-130.977203	-440.420227	423.192261
1734.705907	-121.918167	-428.789581	385.144379
1734.709239	-113.735825	-417.334290	350.661621
1734.712575	-105.261246	-405.469910	317.990662
1734.715902	-98.247803	-392.845703	287.657501
1734.719261	-90.591461	-378.701965	259.720642
1734.722569	-84.396255	-363.564575	233.887787
1734.725903	-77.499695	-348.953247	210.743439
1734.729238	-72.414963	-333.173004	189.586212
1734.732571	-66.219757	-318.912354	170.649902
1734.735903	-60.258320	-304.651672	153.291626
1734.739232	-55.874928	-290.449463	137.745178
1734.742564	-51.374630	-277.416138	123.133842
1734.745906	-47.400349	-264.265930	110.743416
1734.750182	-40.094677	-240.478668	88.592628
1734.753438	-36.471066	-229.257172	78.423149
1734.756753	-34.074810	-218.737000	69.539436
1734.759660	-30.684978	-208.509064	60.947983
1734.763008	-28.230274	-199.216248	52.765633
1734.766322	-25.658680	-189.806534	46.336639
1734.769239	-23.496197	-181.331970	40.199875
1734.772561	-20.924603	-171.980713	34.121559
1734.775893	-19.697247	-163.973694	28.393921
1734.779236	-17.885448	-156.200470	23.250725
1734.782566	-16.132084	-147.784332	19.101112
1734.785892	-14.437168	-141.530685	15.711273
1734.789229	-12.625362	-133.991226	12.146111
1734.792578	-11.631794	-127.796021	8.931618
1734.795922	-10.988888	-121.191711	5.834007
1734.799229	-9.703091	-116.048508	2.794853
1734.802561	-9.001751	-110.203979	1.041489
1734.805904	-7.365280	-105.411469	-1.646996
1734.809235	-7.073055	-99.976044	-2.523678
1734.812566	-6.079483	-94.657501	-3.926365
1734.815893	-5.319691	-90.157211	-6.147285
1734.819226	-5.436581	-87.001175	-7.082413
1734.823415	-4.618347	-79.227936	-8.952663
1734.826764	-4.443012	-74.669197	-8.894215
1734.830097	-3.507889	-72.097603	-10.355350
1734.833007	-3.390999	-68.883110	-10.706024
1734.836356	-3.566330	-66.253067	-10.706024
1734.839730	-2.397423	-63.681473	-12.693165
1734.842558	-2.689655	-60.876099	-12.459385
1734.845887	-1.579189	-59.005844	-12.751614
1734.849232	-2.280533	-56.901810	-12.050270
1734.852562	-1.812969	-54.037994	-12.284050
1734.855892	-2.338982	-52.226181	-12.751614
1734.859226	-2.280533	-50.239044	-13.219177
1734.862553	-1.812969	-48.661018	-13.336067
1734.865887	-1.929863	-46.907654	-12.810055
1734.869221	-1.696079	-45.095856	-12.517830
1734.872554	-1.520748	-43.576271	-13.452957
1734.875886	-1.696079	-41.530685	-13.452957
1734.879236	-1.403858	-40.244888	-13.277618
1734.882553	-1.520748	-38.900650	-13.102283
1734.885887	-0.702511	-37.673294	-13.219177
1734.889217	-1.345409	-36.387497	-13.862072
1734.892554	-0.936295	-35.393921	-13.686737
1734.896828	-0.644066	-33.172997	-13.862072
1734.900192	-0.644066	-32.062538	-13.336067
1734.902999	-0.760956	-30.776741	-13.569847
1734.906314	-0.702511	-29.724716	-12.751614
1734.909678	-0.410282	-28.731155	-13.862072
1734.912552	-0.877846	-27.971359	-13.043839
1734.915882	-0.702511	-27.328461	-13.569847
1734.919223	-0.702511	-26.334892	-13.686737
1734.922579	-0.585621	-25.691994	-13.803631
1734.925883	-0.702511	-24.990654	-13.920521
1734.929218	-0.410282	-23.646408	-13.686737
1734.932550	-0.585621	-23.646408	-13.394508
1734.935892	-0.001167	-23.003510	-13.452957
1734.939219	-0.468731	-21.834602	-13.160728
1734.942545	-0.936295	-21.016369	-12.926945
1734.945878	-0.176502	-20.256577	-13.219177
1734.949212	-0.468731	-20.607246	-12.751614
1734.952572	-0.702511	-20.081238	-13.219177
1734.955879	-0.410282	-19.789013	-13.336067
1734.959210	-0.118061	-18.152542	-13.043839
1734.962550	-0.234951	-18.795441	-12.926945
1734.966759	-0.059612	-18.210987	-12.810055
1734.970057	-0.059612	-17.509644	-12.517830
1734.973389	-0.176502	-16.691406	-12.576275
1734.976306	-0.118061	-16.866745	-12.693165
1734.979633	-0.293392	-16.048512	-12.342491
1734.982968	0.115723	-15.464058	-11.991821
1734.985880	-0.118061	-15.230278	-11.874931
1734.989215	-0.293392	-14.762714	-11.816486
