time (s)	magX	magY	magZ
2452.932850	59.719460	11.721800	2.700752
2452.936186	60.654587	12.014026	3.109879
2452.940455	64.102859	12.949153	1.648743
2452.943757	66.674461	13.592052	2.408531
2452.947052	69.304497	14.351841	2.057861
2452.949946	71.642311	14.585622	1.181175
2452.953267	73.278786	14.819404	0.304497
2452.956601	75.265923	15.520748	-0.922859
2452.959516	77.311516	15.871420	-0.981300
2452.962841	79.941551	16.455873	-2.033318
2452.966175	82.337814	17.917007	-3.026886
2452.969516	84.850967	18.384571	-3.845123
2452.972840	87.831680	18.852133	-5.423149
2452.976177	91.046173	19.611923	-6.533607
2452.979511	93.383987	20.605494	-7.644073
2452.982873	96.715370	21.306839	-9.163651
2452.986177	99.812973	22.241964	-10.566338
2452.989554	103.027466	23.293980	-11.910580
2452.992842	106.767975	24.696669	-13.137932
2452.996173	110.625366	25.748684	-14.540623
2452.999507	113.898300	26.742256	-16.177090
2453.002840	117.112793	27.677382	-18.807133
2453.006176	120.970184	29.664524	-19.976040
2453.010802	129.444763	32.177673	-25.060783
2453.013719	133.535950	33.521915	-27.866165
2453.017048	137.802460	34.690823	-30.028641
2453.019953	142.127411	36.268848	-34.353596
2453.023304	146.919922	37.145531	-36.048515
2453.026656	151.595551	39.249561	-39.496788
2453.029516	156.388077	40.184685	-42.652840
2453.032858	161.589722	41.470486	-46.334892
2453.036170	167.083572	42.931618	-49.783173
2453.039505	171.642319	44.217415	-54.634132
2453.042837	177.369949	46.029221	-57.556404
2453.046171	183.039154	47.665691	-62.465813
2453.049500	189.117477	49.360611	-67.199883
2453.052840	195.195801	50.704849	-73.453537
2453.056172	200.806549	52.458210	-79.414963
2453.059508	207.352417	54.270020	-85.843956
2453.062835	213.080078	56.023376	-92.272942
2453.066167	219.509048	58.361191	-99.111053
2453.069501	226.230270	60.173000	-107.176506
2453.072832	232.308594	62.218586	-114.832848
2453.076180	239.731140	64.030396	-124.593224
2453.079500	245.692581	66.075974	-133.769135
2453.083706	259.661011	69.933372	-155.043243
2453.087108	265.914673	72.212738	-166.790771
2453.090454	272.577423	73.907654	-178.830505
2453.093257	279.240204	75.953247	-192.682068
2453.096587	286.019867	78.174164	-207.994751
2453.099937	292.507324	80.219757	-222.547638
2453.102831	297.767395	82.732910	-237.334305
2453.106168	304.313232	84.427818	-255.452362
2453.109502	308.988892	87.116302	-272.869080
2453.112869	314.365845	89.395676	-290.811798
2453.116165	318.632385	91.032150	-309.631195
2453.119500	322.606659	93.077728	-330.145538
2453.122831	325.353577	94.421982	-351.127411
2453.126165	328.042053	95.707779	-372.518402
2453.129497	328.743408	97.811798	-395.078308
2453.132828	329.444763	98.571594	-417.112213
2453.136160	328.334290	99.039154	-439.905914
2453.139496	326.288696	99.740509	-463.693176
2453.142827	323.191101	100.734070	-487.129761
2453.146158	318.632385	100.792526	-510.566345
2453.149536	312.554047	100.558731	-535.054932
2453.152839	305.891296	98.980713	-558.491577
2453.157038	287.481018	96.175339	-604.078857
2453.160342	275.324371	94.129745	-626.346558
2453.163680	261.940369	91.850380	-646.860962
2453.166590	247.153717	88.402100	-667.141479
2453.169913	231.957932	85.012268	-686.545288
2453.173249	215.008774	80.862656	-703.552856
2453.176161	197.066040	76.596146	-720.443604
2453.179489	177.486847	71.511398	-735.931641
2453.182825	156.446533	66.309761	-749.490967
2453.186158	134.821747	60.348335	-761.121582
2453.189486	112.320282	53.977791	-770.998779
2453.192853	89.526596	46.905903	-779.356445
2453.196154	65.447105	39.892460	-784.733521
2453.199503	41.367622	32.879017	-788.181763
2453.202825	16.353012	25.339567	-790.227295
2453.206161	-8.310928	17.858562	-790.052002
2453.209490	-32.331970	10.143776	-787.714233
2453.212823	-58.106377	2.312098	-783.739868
2453.216153	-81.835190	-5.461136	-776.609619
2453.219490	-105.856232	-12.942142	-767.667480
2453.222824	-129.059036	-20.364697	-756.855103
2453.226152	-150.683807	-27.495033	-743.646362
2453.230357	-190.894211	-41.229694	-711.442993
2453.233689	-210.356522	-47.366451	-692.915894
2453.237073	-226.896561	-53.444767	-673.921021
2453.239940	-244.313278	-58.997082	-652.822266
2453.243272	-258.515503	-63.497372	-631.898926
2453.246576	-271.081238	-68.348328	-608.871460
2453.249490	-282.711853	-71.796616	-584.499756
2453.252819	-292.881348	-75.887787	-561.939819
2453.256144	-301.589722	-78.693161	-537.801880
2453.259480	-307.434265	-81.498535	-513.663940
2453.262817	-312.869690	-83.193466	-490.694916
2453.266149	-317.253052	-84.771484	-466.440094
2453.269479	-320.467590	-85.823486	-443.354187
2453.272816	-321.227356	-87.635300	-420.735840
2453.276141	-321.285767	-87.635300	-398.935730
2453.279478	-321.168884	-87.693741	-377.018707
2453.282815	-319.181763	-87.927521	-356.153717
2453.286162	-316.434814	-87.869080	-337.684998
2453.289480	-313.804810	-87.050842	-318.339539
2453.292811	-308.836914	-85.823486	-300.747498
2453.296144	-304.336670	-85.005264	-283.973694
2453.299474	-299.661011	-84.420807	-252.822327
2453.303688	-288.848633	-81.907654	-237.334305
2453.306993	-282.244324	-81.030975	-223.774994
2453.310340	-276.107544	-79.511398	-210.507889
2453.313226	-269.503235	-78.400940	-197.591461
2453.316574	-263.717102	-77.056702	-186.019287
2453.319903	-256.879028	-75.712448	-174.563995
2453.322812	-250.800705	-74.075974	-164.569855
2453.326148	-244.137924	-72.556396	-154.751022
2453.329499	-237.592056	-70.510818	-145.867340
2453.332805	-230.987717	-69.400345	-137.042084
2453.336145	-225.026291	-67.763885	-128.859741
2453.339493	-218.012863	-66.127411	-121.086502
2453.342814	-212.051437	-65.133835	-113.605499
2453.346138	-205.797806	-63.380482	-106.182938
2453.349473	-199.953232	-61.744007	-99.227943
2453.352809	-193.465805	-60.458210	-93.266510
2453.356140	-187.913498	-58.763294	-87.538864
2453.359475	-182.185867	-57.185268	-82.629456
2453.362806	-176.516647	-55.957920	-77.077148
2453.366142	-171.256561	-54.438343	-72.284630
2453.369477	-166.054947	-52.334309	-67.082993
2453.372837	-161.729980	-50.990063	-61.530685
2453.377003	-151.969604	-48.067799	-52.997665
2453.380350	-147.001740	-47.191113	-49.900063
2453.383262	-142.033905	-45.554646	-45.458214
2453.386583	-136.832260	-43.976620	-41.951492
2453.389941	-133.559326	-42.340153	-38.737000
2453.393282	-129.117477	-41.288136	-35.756287
2453.396137	-124.967865	-40.119228	-33.184689
2453.399471	-120.701355	-39.067211	-30.145531
2453.402806	-116.902405	-37.255405	-27.340157
2453.406135	-113.629456	-35.969612	-25.002338
2453.409465	-108.603149	-35.443600	-23.307426
2453.412802	-105.856232	-34.040913	-20.969612
2453.416135	-102.700180	-33.339569	-18.748688
2453.419464	-99.310349	-32.462887	-16.995327
2453.422811	-96.095840	-31.060196	-16.118649
2453.426132	-93.173584	-30.475742	-14.832851
2453.429469	-90.485092	-29.073055	-12.787262
2453.432797	-87.913498	-28.313271	-11.209236
2453.436132	-86.101700	-27.553478	-10.040329
2453.439462	-83.120972	-27.261253	-10.274109
2453.442801	-80.841614	-26.501461	-9.105202
2453.447060	-76.750427	-25.040325	-7.819405
2453.450382	-75.347748	-25.332554	-6.767387
2453.453732	-73.185272	-24.689651	-6.007603
2453.456560	-70.964355	-23.871418	-5.656929
2453.459885	-69.737000	-22.877850	-4.721806
2453.463224	-67.632965	-22.702511	-3.728233
2453.466151	-66.347168	-22.118057	-4.020462
2453.469464	-64.593811	-21.884277	-3.845123
2453.472800	-63.600235	-20.890705	-2.617767
2453.476122	-61.729980	-20.949150	-2.267097
2453.479459	-60.794861	-20.306252	-2.325546
2453.482795	-59.216835	-20.130917	-3.026886
2453.486121	-58.047928	-19.897137	-1.624199
2453.489463	-56.002342	-19.078899	-0.630623
2453.492791	-55.242554	-19.429573	-1.098190
2453.496122	-53.781418	-18.962009	-0.689072
2453.499458	-52.963188	-18.786674	0.129158
2453.502817	-50.917587	-18.319111	-0.572182
2453.506127	-50.040909	-17.734657	0.830505
2453.509460	-48.287544	-17.559322	1.005844
2453.512802	-47.527763	-17.617767	0.830505
2453.516120	-46.241966	-16.974869	1.122734
2453.520723	-44.488609	-16.273525	1.940971
2453.523637	-43.670364	-15.396843	1.765633
2453.526991	-43.144356	-14.929283	1.824081
2453.530318	-41.975449	-14.753944	2.291641
2453.533222	-41.391006	-14.461720	2.174751
2453.536566	-40.514313	-14.344830	2.116302
2453.539454	-39.696083	-13.701931	2.525421
2453.542791	-38.234947	-13.701931	2.934540
2453.546155	-37.942719	-12.942142	3.694328
2453.549456	-37.475159	-12.942142	3.635880
2453.552790	-36.481598	-13.059032	3.928108
2453.556120	-35.897133	-13.175922	3.928108
2453.559452	-34.377563	-12.474575	4.103439
2453.562785	-34.669785	-12.299240	4.512566
2453.566126	-33.734657	-12.416130	4.512566
2453.569455	-33.793106	-11.831676	4.980125
2453.572787	-32.682648	-11.656342	4.161888
2453.576116	-32.215080	-11.364113	4.804787
2453.579453	-32.624199	-11.247223	4.629456
2453.582785	-31.805969	-11.656342	5.213905
2453.586122	-31.572182	-11.305668	4.220337
2453.589486	-30.227936	-11.305668	4.512566
2453.593655	-30.344826	-11.013443	4.454117
2453.597150	-29.701927	-10.312099	4.687897
2453.600396	-29.935715	-9.727646	3.869659
2453.603233	-29.409698	-10.136761	4.571007
2453.606560	-29.409698	-10.545879	3.869659
2453.609897	-28.942139	-10.428989	3.752769
2453.612784	-28.299240	-10.312099	4.220337
2453.616120	-27.831680	-10.779659	3.402100
2453.619445	-28.416130	-9.961426	3.811218
2453.622801	-28.474579	-9.961426	3.577438
2453.626114	-27.364120	-9.902981	3.518990
2453.629445	-27.890121	-9.610752	4.044998
2453.632784	-26.896553	-10.078316	3.811218
2453.636106	-26.896553	-9.902981	4.454117
2453.639448	-26.662773	-10.019871	3.694328
2453.642782	-26.896553	-9.786091	3.752769
2453.646107	-25.961426	-9.260082	3.986549
2453.649441	-25.961426	-9.260082	4.103439
2453.652800	-26.019875	-9.026299	3.694328
2453.656113	-25.318527	-9.376972	4.454117
2453.659441	-25.493866	-9.201637	4.220337
2453.662778	-25.143196	-8.967854	3.928108
2453.667061	-24.850967	-8.967854	4.687897
2453.670308	-24.734077	-9.026299	4.395676
2453.673628	-24.909416	-8.792519	4.571007
2453.676537	-24.266510	-8.441849	4.220337
2453.679869	-23.740509	-9.260082	3.752769
2453.683208	-24.032730	-8.383400	4.512566
2453.686105	-24.091179	-8.383400	4.512566
2453.689440	-23.798950	-8.909409	4.746346
2453.692779	-23.565170	-8.208065	4.980125
2453.696108	-23.331383	-8.383400	4.980125
2453.699440	-22.980713	-8.091175	5.097015
2453.702777	-23.156052	-7.915840	4.863235
2453.706110	-23.623619	-8.441849	4.980125
2453.709436	-23.565170	-7.915840	4.863235
2453.712771	-23.506721	-7.857395	4.746346
2453.716135	-22.980713	-8.500294	4.571007
2453.719436	-23.214493	-8.792519	5.038567
2453.722772	-23.448273	-8.558739	4.746346
2453.726135	-23.623619	-8.617184	4.804787
2453.729434	-23.097603	-8.558739	4.278778
2453.732768	-23.623619	-8.383400	4.278778
2453.736101	-23.623619	-8.967854	4.220337
2453.740303	-23.565170	-8.383400	3.928108
2453.743650	-23.506721	-8.617184	3.986549
2453.746967	-24.149620	-8.149620	3.986549
2453.749885	-24.617180	-8.675629	3.694328
2453.753215	-23.857399	-8.675629	3.635880
2453.756555	-24.324959	-8.850964	3.635880
2453.759448	-23.974289	-8.500294	4.454117
2453.762807	-24.500290	-8.675629	4.395676
2453.766101	-24.441849	-8.734074	4.980125
2453.769461	-25.084747	-9.376972	4.103439
2453.772765	-24.500290	-9.143192	4.454117
2453.776094	-24.909416	-9.260082	4.161888
2453.779432	-25.727646	-9.318527	4.337227
2453.782770	-25.902977	-9.318527	4.512566
2453.786094	-25.669197	-9.376972	4.044998
2453.789429	-26.019875	-9.435417	4.278778
2453.792762	-25.143196	-9.435417	3.343658
2453.796099	-26.195213	-9.143192	3.869659
2453.799426	-26.370544	-9.610752	3.928108
2453.802762	-26.779663	-9.961426	3.986549
2453.806094	-26.721214	-9.844536	4.044998
2453.809426	-27.597900	-9.493862	3.811218
2453.813696	-27.188782	-9.727646	4.571007
2453.817028	-27.305672	-9.902981	4.103439
2453.820343	-27.597900	-9.844536	4.454117
2453.823183	-27.714790	-9.493862	4.044998
2453.826527	-27.948570	-9.844536	4.454117
2453.829848	-28.825249	-9.727646	4.980125
2453.832755	-28.649918	-10.312099	4.512566
2453.836091	-28.942139	-10.721214	4.103439
2453.839421	-29.760376	-10.604324	4.161888
2453.842760	-29.409698	-10.896549	4.161888
2453.846093	-29.409698	-10.195206	3.752769
2453.849442	-30.461716	-10.604324	4.161888
2453.852759	-31.221512	-11.890121	3.460548
2453.856095	-31.221512	-10.896549	3.811218
2453.859426	-31.396843	-11.305668	4.746346
2453.862761	-32.156631	-11.013443	4.278778
2453.866085	-32.273529	-11.481003	4.571007
2453.869426	-32.741096	-11.597897	4.395676
2453.872760	-33.617767	-12.299240	4.863235
2453.876085	-33.851555	-12.357685	4.044998
2453.879427	-34.260666	-12.007011	3.694328
2453.882754	-35.078903	-12.533020	3.402100
2453.886964	-36.481598	-13.585041	3.518990
2453.890267	-37.007591	-13.234367	2.992981
2453.893224	-37.358269	-13.760376	2.992981
2453.896510	-38.234947	-14.286385	2.350082
2453.899852	-38.644066	-14.461720	1.765633
2453.903207	-39.403854	-14.929283	2.174751
2453.906085	-40.806541	-15.396843	2.116302
2453.909414	-41.157219	-15.279953	2.057861
2453.912752	-42.267677	-15.747517	1.940971
2453.916078	-42.910576	-16.273525	1.707184
2453.919467	-44.021049	-16.565750	1.473404
2453.922760	-44.371712	-17.325542	1.824081
2453.926087	-45.423737	-16.741089	1.239624
2453.929418	-46.125076	-17.793102	0.538284
2453.932750	-47.352425	-17.325542	0.362938
2453.936105	-48.696671	-18.085331	0.772064
2453.939416	-49.222672	-18.319111	-0.221512
2453.942754	-50.216248	-18.903564	0.421387
2453.946084	-51.852715	-19.137344	-0.279953
2453.949415	-53.021622	-19.663353	-0.221512
2453.952744	-54.307426	-20.072472	-0.338402
2453.956079	-55.476334	-20.423145	-0.163063
2453.960298	-57.638809	-21.358269	-0.981300
2453.963620	-58.749268	-21.650494	-1.682640
2453.966529	-60.619522	-22.293396	-1.974869
2453.969861	-61.963760	-22.702511	-2.150208
2453.973236	-63.424896	-23.696087	-2.676216
2453.976084	-64.593811	-23.812977	-2.909996
2453.979435	-66.054947	-24.514320	-3.202225
2453.982741	-67.866745	-25.157215	-3.903572
2453.986076	-70.087677	-26.326122	-4.429577
2453.989412	-71.957916	-26.559902	-5.890713
2453.992746	-73.477493	-26.969025	-6.592056
2453.996076	-75.990646	-27.728817	-7.118061
2453.999415	-77.276443	-28.547050	-8.579197
2454.002740	-80.140274	-29.423729	-10.098778
2454.006077	-82.068970	-30.008183	-10.800121
2454.009410	-84.640564	-30.826416	-11.793690
2454.012740	-87.036819	-31.527760	-12.962601
2454.016074	-89.959091	-33.339569	-13.605495
2454.019409	-92.121567	-35.326710	-16.060200
2454.022763	-94.926941	-35.502041	-17.404446
2454.026075	-98.258331	-37.080067	-18.690243
2454.030333	-104.687317	-39.300991	-22.372299
2454.033672	-108.252487	-40.937466	-24.184105
2454.036948	-111.700760	-42.281704	-26.112801
2454.039831	-114.564590	-43.976620	-28.801289
2454.043170	-118.714203	-45.379314	-31.080658
2454.046491	-122.688492	-46.606663	-34.061371
2454.049404	-126.604324	-48.360020	-36.574524
2454.052733	-130.578613	-49.236706	-39.496788
2454.056069	-135.195801	-51.457630	-42.652840
2454.059400	-138.702515	-52.977207	-45.691994
2454.062739	-143.378143	-55.607250	-48.322037
2454.066092	-147.819992	-57.126827	-51.828758
2454.069397	-152.437164	-58.295734	-55.452370
2454.072735	-157.405014	-60.458210	-59.894218
2454.076074	-161.846878	-62.737583	-63.050266
2454.079401	-166.697830	-64.374054	-68.368790
2454.082733	-171.431931	-66.244293	-73.453537
2454.086063	-176.399750	-68.757446	-77.778496
2454.089434	-181.893631	-70.627701	-84.207489
2454.092728	-186.803024	-73.023972	-89.818237
2454.096071	-192.472244	-75.244888	-95.195206
2454.099398	-198.550552	-77.582703	-102.442436
2454.103601	-209.888962	-81.966110	-116.586212
2454.106913	-215.967270	-84.362366	-124.476334
2454.110315	-221.519577	-86.817062	-133.067810
2454.113161	-227.539444	-88.979538	-141.776154
2454.116484	-234.786667	-92.018707	-151.419647
2454.119855	-240.339005	-95.233200	-162.407364
2454.122728	-246.943314	-97.687897	-173.453552
2454.126064	-252.028061	-100.551727	-185.201050
2454.129395	-257.697266	-103.181778	-198.059036
2454.132750	-264.418457	-106.337814	-210.800125
2454.136077	-269.912354	-109.435425	-225.469910
2454.139400	-275.523071	-112.240799	-241.191711
2454.142729	-280.607849	-115.279953	-256.621277
2454.146061	-286.686157	-118.377563	-272.927521
2454.149393	-290.718872	-120.656921	-290.402710
2454.152769	-295.686768	-123.929871	-308.111633
2454.156061	-299.368774	-126.793686	-327.457031
2454.159397	-302.583313	-129.774414	-347.153137
2454.162729	-304.687317	-131.936874	-368.602570
2454.166061	-307.025146	-134.800705	-389.642914
2454.169392	-306.966675	-136.904739	-412.319702
2454.172726	-306.791382	-138.424316	-435.405609
2454.176944	-303.401489	-140.820587	-482.337219
2454.180331	-299.719482	-142.457047	-506.066071
2454.183662	-295.219177	-142.457047	-529.268860
2454.186501	-288.381104	-142.281708	-552.763855
2454.189824	-280.841614	-141.755707	-576.609619
2454.193150	-271.957947	-141.229691	-599.461670
2454.196085	-261.905334	-139.300995	-622.372314
2454.199397	-250.274704	-137.606079	-645.516602
2454.202724	-236.423141	-134.859146	-666.031006
2454.206056	-221.694931	-131.469315	-686.603760
2454.209386	-205.797806	-127.962601	-704.780273
2454.212719	-189.082413	-123.579193	-722.664551
2454.216055	-170.496796	-119.137360	-738.386353
2454.219389	-152.086502	-114.111053	-753.582153
2454.222716	-131.513733	-108.734070	-765.914062
2454.226059	-109.596725	-102.305084	-776.901855
2454.229385	-86.861496	-96.168320	-784.616577
2454.232721	-63.892456	-88.804214	-790.928711
2454.236052	-40.280533	-81.907654	-795.662720
2454.239403	-16.493279	-74.309753	-798.117432
2454.242718	8.053768	-67.179428	-799.578613
2454.246056	32.542374	-59.523083	-797.123901
2454.250312	81.344238	-45.262424	-786.837524
2454.253575	106.066628	-37.372303	-778.713623
2454.256897	129.620102	-30.241962	-768.777954
2454.259809	152.180008	-23.111633	-755.276978
2454.263153	174.097015	-15.279953	-741.483887
2454.266474	194.962006	-9.026299	-726.171265
2454.269407	214.833420	-2.480419	-708.579224
2454.272714	233.477493	3.773232	-689.409180
2454.276047	251.770889	10.143776	-668.719482
2454.279384	267.317352	14.585622	-647.153076
2454.282712	282.045593	20.196377	-624.768555
2454.286049	294.903564	24.872005	-600.396851
2454.289383	305.774414	29.664524	-577.486206
2454.292717	315.417908	33.229691	-553.523682
2454.296047	323.308014	37.262421	-529.911743
2454.299417	330.087646	40.243134	-504.838684
2454.302711	335.523071	42.756283	-480.642334
2454.306040	338.620667	44.977207	-457.556427
2454.309372	341.192322	47.139687	-433.652252
2454.312734	342.361206	48.893044	-409.981903
2454.316043	342.185852	50.646408	-387.597321
2454.319378	341.250732	51.523087	-350.776733
2454.323556	336.399780	52.867329	-324.768555
2454.326919	332.893066	52.925774	-305.481598
2454.330256	328.217407	53.568672	-287.947998
2454.333163	323.541779	53.860901	-270.648163
2454.336501	318.164825	53.393337	-253.582123
2454.339826	312.144958	52.984222	-237.977203
2454.342744	306.651093	52.925774	-222.489182
2454.346040	299.871399	52.282875	-208.696091
2454.349371	293.091736	52.049095	-195.838120
2454.352702	285.786072	51.113968	-183.213913
2454.356061	279.357117	49.886616	-171.115723
2454.359370	272.402100	49.360611	-160.361786
2454.362709	265.680908	48.893044	-150.835190
2454.366042	258.550537	47.782585	-139.847458
2454.369382	251.420227	47.198128	-131.255997
2454.372701	244.056107	46.204559	-122.021629
2454.376037	237.276443	45.152542	-114.014618
2454.379373	230.730576	44.217415	-106.533607
2454.382700	223.717133	42.990063	-99.286385
2454.386037	217.112808	42.288719	-93.032730
2454.389372	210.625366	41.061367	-86.136185
2454.392703	204.313263	39.717125	-81.168327
2454.396955	192.741089	37.613091	-69.946815
2454.400335	186.838104	36.619522	-63.693165
2454.403221	180.759796	35.216831	-59.426655
2454.406464	175.032135	34.515488	-54.634132
2454.409799	169.246063	33.346581	-49.490944
2454.412721	164.862640	32.762127	-45.984222
2454.416035	159.135010	31.827002	-42.126831
2454.419368	154.050262	30.541204	-38.970779
2454.422707	149.082397	28.261835	-35.230278
