time (s)	magX	magY	magZ
10098.984837	175.634720	110.456467	122.111053
10098.988168	176.686737	111.099350	125.033310
10098.991516	178.206314	111.216248	126.611328
10098.994834	179.082993	111.333130	128.949142
10098.998198	180.602570	111.976044	130.468735
10099.001495	181.771484	112.151367	133.157227
10099.004833	182.765045	112.794281	135.436584
10099.008164	183.758606	113.320282	138.183517
10099.012345	186.154877	114.255402	142.450027
10099.015682	188.025131	114.956741	145.021637
10099.018597	189.194031	114.781418	147.300995
10099.021918	191.414963	115.658096	149.755707
10099.025280	192.934540	116.125656	152.444183
10099.028161	194.220337	116.242538	155.308014
10099.031499	195.447693	116.476334	157.996490
10099.034825	196.616592	117.060791	161.152542
10099.038157	198.136169	117.820572	164.250137
10099.041530	199.538864	117.119232	167.756866
10099.044825	200.649323	117.703674	170.386917
10099.048160	202.285797	118.112808	173.484528
10099.051491	203.454712	118.814148	176.699005
10099.054823	205.091156	119.515488	180.088837
10099.058155	206.143188	119.457047	182.894211
10099.061494	208.188782	120.041489	187.394501
10099.064826	210.059021	119.690826	190.082993
10099.068156	211.111053	120.099945	194.583282
10099.071490	212.104614	120.450623	198.148437
10099.074828	213.799530	120.216827	202.005859
10099.078152	215.377563	120.392166	205.746338
10099.082367	217.890717	120.976624	213.636475
10099.085787	219.059601	121.093506	218.370544
10099.089091	220.403839	121.502625	223.104614
10099.091945	221.280548	120.859726	227.546448
10099.095258	223.209229	121.327286	231.345428
10099.098578	224.436584	121.794861	235.904144
10099.101488	225.663940	121.210403	241.631805
10099.104824	226.949738	120.976624	246.307434
10099.108154	227.475739	120.742844	251.450623
10099.111486	229.229095	120.976624	256.418488
10099.114822	230.222687	120.333725	261.035675
10099.118153	231.099365	120.333725	266.997070
10099.121490	232.209808	119.515488	271.614258
10099.124819	233.086487	119.340149	277.575684
10099.128177	234.196960	118.931030	282.718872
10099.131481	235.365875	118.229691	288.095856
10099.134821	235.716522	117.294571	295.050842
10099.138150	236.651672	117.177673	300.135590
10099.141481	237.645233	115.891876	305.863251
10099.144819	238.229706	115.190536	311.590881
10099.148163	238.521912	114.313858	318.078308
10099.151487	238.872589	112.911163	339.060181
10099.155668	239.515472	111.157806	337.014618
10099.158997	240.392151	109.988892	343.443604
10099.162328	240.509064	108.527756	349.521912
10099.165245	240.567505	107.241959	356.126251
10099.168578	240.392151	106.014603	362.438324
10099.171949	239.573944	103.793686	369.627136
10099.174808	239.573944	102.683228	375.997681
10099.178149	238.989471	100.696091	383.011078
10099.181483	238.463470	99.118057	390.083008
10099.184829	237.352997	96.955582	396.804230
10099.188155	236.943878	95.202225	403.408569
10099.191478	235.774994	92.747513	410.714172
10099.194813	234.898315	90.643478	418.078308
10099.198141	234.080078	88.422562	426.026886
10099.201475	232.326721	85.675629	432.806580
10099.204810	230.222687	82.694916	439.819977
10099.208142	228.819977	80.064880	447.534790
10099.211479	227.358856	77.551727	454.372864
10099.214848	225.079468	74.454117	460.801880
10099.218147	222.624786	71.356522	467.990662
10099.221484	220.871399	67.908241	475.413208
10099.225679	215.494446	61.245472	489.264771
10099.229012	211.987732	58.030979	495.576843
10099.232399	209.766815	54.173584	503.174744
10099.235260	206.084747	50.725304	510.363525
10099.238564	202.694916	46.634132	516.149597
10099.241893	199.129761	42.776741	522.227966
10099.244802	195.506134	38.685562	528.949158
10099.248137	191.356506	34.711281	534.969055
10099.251474	186.505554	30.620106	541.690247
10099.254806	182.297485	25.067797	548.236084
10099.258176	177.855637	20.684395	553.788391
10099.261467	173.413788	15.891876	559.282288
10099.264806	168.270599	11.566920	564.776184
10099.268135	163.068970	6.248394	570.386902
10099.271476	157.984222	1.514320	574.887207
10099.274808	152.841034	-3.044418	580.790161
10099.278139	147.230286	-8.012276	584.647583
10099.281471	141.794861	-12.804790	589.206299
10099.284805	135.833435	-18.123322	593.531250
10099.288193	129.755112	-22.915836	597.914673
10099.291486	123.267677	-28.175922	601.421387
10099.296096	111.111038	-39.105198	608.434875
10099.298986	104.682053	-44.423733	611.473999
10099.302374	98.077728	-49.683811	613.519592
10099.305680	91.239624	-54.943890	615.506714
10099.308570	84.752190	-59.853306	617.727661
10099.311918	77.972527	-65.464050	620.357666
10099.314805	69.790176	-70.957916	620.942139
10099.318131	62.835182	-76.276459	621.526611
10099.321466	55.997078	-81.536530	621.935730
10099.324856	48.925186	-86.913498	622.637085
10099.328135	41.677963	-91.589127	622.344788
10099.331472	35.073639	-97.492111	622.578613
10099.334794	27.651077	-102.518417	621.818787
10099.338128	21.046753	-107.194046	621.234375
10099.341466	13.682640	-112.278793	620.591492
10099.344838	5.675629	-117.188202	618.487427
10099.348132	-1.337822	-122.039154	615.915833
10099.351464	-7.649918	-126.481003	614.805420
10099.354800	-14.897141	-131.273529	612.058411
10099.358125	-22.261253	-135.540039	609.194641
10099.361459	-29.040916	-140.098770	606.681458
10099.364798	-35.937462	-144.482178	603.583862
10099.369016	-49.555229	-152.898315	595.576843
10099.372381	-56.334892	-156.288147	592.070129
10099.375733	-61.945656	-160.846878	587.686707
10099.378610	-68.608421	-164.412048	582.894226
10099.381903	-74.686745	-167.743423	577.809448
10099.385226	-80.881935	-171.250153	572.783142
10099.388169	-86.901817	-173.763290	567.523071
10099.391455	-91.811226	-177.679138	563.081238
10099.394801	-97.947990	-180.835190	556.827576
10099.398122	-103.558739	-183.289886	551.099976
10099.401464	-108.935707	-186.036819	545.080078
10099.404788	-114.604912	-188.725296	538.943298
10099.408127	-119.514320	-191.355347	531.754517
10099.411457	-124.248390	-193.926956	525.325500
10099.414792	-128.924042	-195.095840	518.662781
10099.418128	-133.190521	-197.492126	512.175354
10099.421454	-137.632385	-199.187042	505.804810
10099.424793	-141.840454	-200.706604	499.083618
10099.428127	-145.464050	-202.635315	492.070129
10099.431476	-149.321472	-203.570435	485.056641
10099.434791	-153.178833	-204.563995	477.634155
10099.438978	-159.724731	-206.726471	463.957886
10099.442304	-162.646973	-207.544708	455.775574
10099.445629	-164.984802	-207.895401	449.288147
10099.448542	-168.082397	-208.538284	441.748688
10099.451875	-170.420227	-209.531860	434.501434
10099.455204	-172.816498	-209.765640	427.371155
10099.458119	-175.154297	-209.940979	420.416138
10099.461452	-178.193451	-210.642319	412.350677
10099.464782	-180.063690	-210.408539	404.577423
10099.468116	-182.050842	-210.174744	397.505554
10099.471454	-183.511993	-209.940979	390.492096
10099.474813	-185.616028	-210.057846	383.946198
10099.478117	-186.492706	-209.999420	376.640533
10099.481452	-188.187622	-209.882523	369.451782
10099.484784	-189.005859	-209.005859	362.555237
10099.488117	-190.174744	-208.421402	355.541779
10099.491451	-190.934540	-207.310944	348.995911
10099.494780	-192.103455	-207.194046	343.209808
10099.498114	-192.629456	-206.142014	335.845703
10099.501444	-193.623047	-205.090027	329.475159
10099.504782	-194.265930	-204.797791	322.812408
10099.508118	-194.382812	-203.453537	301.830505
10099.512314	-195.142609	-201.817078	303.525421
10099.515658	-194.967285	-200.648163	298.382233
10099.518612	-195.317932	-199.303909	291.894806
10099.521891	-195.610168	-197.784348	286.459381
10099.525233	-195.434845	-196.381668	280.497955
10099.528143	-195.493286	-195.738739	274.302765
10099.531444	-194.908844	-194.277618	269.334900
10099.534774	-194.675049	-192.991821	263.724152
10099.538107	-194.149048	-192.115143	258.697845
10099.541439	-193.506165	-190.712448	253.203979
10099.544770	-193.213928	-189.134430	248.060791
10099.548109	-192.863251	-187.790176	242.450043
10099.551438	-192.337219	-186.504379	237.482178
10099.554775	-191.402100	-185.160141	233.390991
10099.558108	-191.109894	-183.991241	228.423157
10099.561472	-190.817657	-182.471649	223.922852
10099.564777	-189.882538	-180.952072	219.831696
10099.568112	-189.122742	-179.958511	215.974304
10099.571442	-188.187622	-177.270035	211.707764
10099.574770	-187.661621	-176.451782	206.155487
10099.578108	-187.018707	-175.165985	202.590302
10099.582375	-185.031555	-172.009949	195.226181
10099.585743	-184.037994	-170.724136	190.433670
10099.588963	-183.161316	-169.204575	186.693176
10099.591871	-182.576843	-167.568100	183.244873
10099.595196	-181.641724	-166.223846	180.556396
10099.598527	-180.297485	-165.230286	177.108124
10099.601435	-179.654602	-163.827591	173.426056
10099.604804	-178.427246	-162.834030	170.503784
10099.608103	-178.018127	-160.788422	166.646423
10099.611449	-177.024567	-159.093521	163.724136
10099.614766	-175.914093	-158.158401	160.743439
10099.618101	-174.862061	-156.463486	157.996490
10099.621441	-174.160706	-155.177673	155.191116
10099.624764	-172.173584	-154.359451	152.093506
10099.628098	-171.472229	-152.547638	149.288132
10099.631430	-171.004669	-151.320282	146.424316
10099.634775	-169.835785	-150.092941	143.735825
10099.638132	-169.368225	-148.865585	141.807129
10099.641437	-167.907074	-147.462891	138.709534
10099.644768	-167.731750	-146.644653	136.839279
10099.648135	-166.738190	-145.183533	134.559906
10099.651436	-165.803040	-143.897720	132.514313
10099.655633	-164.049683	-141.501465	127.663361
10099.658976	-163.056122	-140.449448	125.442429
10099.662305	-162.004089	-139.631210	123.922852
10099.665211	-161.127411	-138.286972	121.877274
10099.668547	-159.900055	-137.293396	118.779663
10099.671901	-158.848053	-135.715378	118.253662
10099.674773	-158.964935	-135.014038	115.682068
10099.678112	-157.503784	-134.137360	113.578033
10099.681431	-157.094696	-132.910004	112.759781
10099.684767	-156.101105	-131.799545	110.538864
10099.688094	-155.808868	-130.864410	109.486847
10099.691465	-154.756866	-130.046173	107.850372
10099.694762	-153.529510	-129.812393	106.623032
10099.698120	-152.652832	-128.643494	104.635895
10099.701430	-152.419067	-127.474579	103.116302
10099.704757	-151.308594	-127.474579	101.596725
10099.708095	-151.133240	-126.305679	99.668030
10099.711426	-150.081238	-125.136765	98.148453
10099.714756	-149.204559	-124.786087	97.213318
10099.718092	-148.561676	-123.909409	96.804214
10099.721434	-147.918762	-122.974289	95.109283
10099.725688	-147.275879	-121.863831	93.122162
10099.729048	-146.399200	-121.045593	91.485687
10099.732395	-145.464050	-120.344238	91.193451
10099.735180	-145.171844	-119.584457	90.082993
10099.738518	-144.528931	-118.415543	88.914093
10099.741881	-143.710693	-117.947983	87.862076
10099.744756	-143.243134	-117.129745	87.394501
10099.748089	-143.301575	-116.486862	86.868500
10099.751424	-142.775574	-115.668610	86.342499
10099.754761	-141.898895	-115.610168	84.647583
10099.758086	-141.606659	-114.616608	84.238449
10099.761420	-141.022217	-114.616608	83.829346
10099.764755	-141.080658	-113.973694	82.894211
10099.768086	-140.729980	-113.856812	81.491531
10099.771420	-140.846863	-112.687912	82.426651
10099.774757	-140.203979	-112.804794	81.257736
10099.778083	-139.970215	-112.161896	80.556396
10099.781415	-139.327301	-111.928116	79.621277
10099.784757	-138.742859	-111.168320	79.270615
10099.788104	-138.742859	-111.343674	78.919937
10099.791423	-138.509064	-110.642319	77.575684
10099.796036	-137.632385	-110.057861	76.815903
10099.798934	-137.749268	-109.707184	76.523666
10099.802308	-137.573944	-109.239624	76.173004
10099.805180	-137.281708	-109.005844	75.939224
10099.808508	-137.281708	-108.129166	75.880768
10099.811894	-137.340149	-108.538284	76.289886
10099.814754	-136.463470	-108.129166	75.062531
10099.818087	-136.405029	-107.720047	75.296310
10099.821463	-136.463470	-108.246063	75.880768
10099.824772	-136.171234	-107.720047	74.536530
10099.828084	-136.229675	-107.486267	75.237885
10099.831420	-136.755707	-107.369370	74.887192
10099.834750	-136.521912	-107.427826	74.536530
10099.838078	-136.346588	-107.018707	74.770309
10099.841417	-137.047943	-106.551147	74.302750
10099.844744	-136.755707	-107.252487	74.185852
10099.848085	-136.814148	-107.544724	73.893631
10099.851418	-136.755707	-107.018707	74.711868
10099.854750	-136.755707	-106.784927	73.835190
10099.858077	-137.281708	-107.135590	74.770309
10099.861417	-137.398590	-107.135590	73.893631
10099.864774	-137.223267	-107.135590	89.089417
10099.868944	-138.041504	-106.784927	74.536530
10099.872362	-137.866150	-106.375809	74.594971
10099.875686	-138.099945	-107.720047	75.646988
10099.878526	-138.333740	-107.252487	74.711868
10099.881839	-138.450623	-107.252487	76.406784
10099.885182	-139.035095	-107.369370	76.289886
10099.888073	-139.444183	-107.544724	76.757446
10099.891414	-139.677979	-108.070724	76.874344
10099.894747	-139.853302	-107.895386	76.406784
10099.898078	-139.619507	-108.421402	77.517242
10099.901412	-140.496216	-108.070724	77.634140
10099.904742	-140.963776	-108.421402	78.043259
10099.908069	-140.846863	-108.596725	78.978378
10099.911405	-142.015778	-109.181183	79.095261
10099.914758	-142.308014	-109.531860	78.393921
10099.918076	-143.126251	-109.648758	80.381073
10099.921407	-143.360016	-109.765640	81.140854
10099.924735	-143.593811	-109.999420	82.017532
10099.928073	-144.762695	-110.583878	82.017532
10099.931405	-144.645844	-110.642319	82.660431
10099.934740	-145.230255	-111.226776	84.004669
10099.939039	-146.866760	-112.103455	85.173584
10099.942252	-147.100525	-112.220352	85.465805
10099.945582	-148.210999	-112.571014	86.926941
10099.948504	-148.503204	-113.330811	88.095856
10099.951833	-148.912323	-113.915268	89.323212
10099.955157	-149.905884	-114.207474	90.608994
10099.958090	-150.607239	-114.791946	91.485687
10099.961400	-150.548828	-115.902405	91.427231
10099.964734	-152.126831	-115.785507	93.355942
10099.968064	-152.828156	-116.194626	94.115723
10099.971401	-153.178833	-116.720642	95.226181
10099.974735	-154.581512	-117.597321	97.154892
10099.978069	-155.049072	-117.831100	97.739334
10099.981406	-155.692017	-118.649323	98.616013
10099.984751	-156.860901	-118.883102	99.726486
10099.988070	-157.562256	-119.350662	101.655167
10099.991404	-159.198700	-120.344238	102.999420
10099.994734	-159.607849	-120.870255	103.642319
10099.998065	-160.426056	-121.805374	105.278778
10100.001429	-161.478088	-122.740509	108.084167
10100.004733	-162.530121	-122.798950	109.194626
10100.008061	-163.582123	-123.558746	110.889542
10100.012247	-165.861481	-125.019867	113.578033
10100.015614	-166.445953	-125.955002	115.623611
10100.018956	-167.907074	-126.831680	117.844543
10100.021851	-168.491516	-127.065460	119.831680
10100.025182	-169.368225	-128.000595	122.169495
10100.028114	-169.952667	-129.111053	123.104614
10100.031392	-171.530670	-129.753952	125.676208
10100.034729	-172.991821	-130.630630	127.312683
10100.038062	-173.634705	-131.507309	129.650497
10100.041395	-174.862061	-132.559326	132.105209
10100.044762	-175.738770	-133.202225	134.735245
10100.048059	-177.375214	-134.078903	135.845703
10100.051397	-178.602570	-135.072479	139.177094
10100.054726	-179.946838	-135.189362	142.391586
10100.058074	-181.057281	-136.299820	145.021637
10100.061392	-182.401520	-137.702530	147.710114
10100.064720	-183.804199	-138.403870	149.872589
10100.068059	-185.323792	-139.163651	152.385742
10100.071386	-186.551147	-140.157227	155.483353
10100.074722	-187.953827	-141.033905	158.639389
10100.078065	-189.239624	-142.027466	162.029221
10100.082337	-191.519012	-143.897720	168.399765
10100.085665	-193.155487	-145.475739	170.854477
10100.088945	-194.558167	-145.943314	174.478088
10100.091813	-195.668640	-146.761551	177.517258
10100.095148	-196.895996	-148.164230	181.082397
10100.098479	-198.532440	-148.690247	184.822906
10100.101407	-199.818237	-149.742249	188.095856
10100.104717	-201.396271	-150.034485	191.836365
10100.108056	-201.980713	-151.787857	196.278198
10100.111386	-203.324982	-152.255417	199.083588
10100.114719	-205.545898	-153.774994	203.408539
10100.118056	-206.247253	-154.359451	208.084167
10100.121391	-207.357697	-155.528351	212.350647
10100.124720	-208.877289	-156.054367	217.143188
10100.128051	-210.163086	-157.340149	221.292816
10100.131404	-210.864410	-158.216827	226.085327
10100.134732	-212.384003	-159.210403	230.468719
10100.138053	-213.319122	-159.736420	235.495026
10100.141381	-214.897125	-160.613098	239.878448
10100.144726	-215.890717	-161.022202	245.664520
10100.148050	-217.234955	-162.074234	250.047943
10100.151384	-218.228546	-162.483337	255.717102
10100.155583	-220.566345	-163.418472	266.003510
10100.158914	-221.326141	-164.821152	271.438904
10100.162263	-221.384583	-165.697845	277.634125
10100.165170	-222.495026	-166.106964	283.127991
10100.168499	-223.313263	-166.516083	289.440094
10100.171379	-223.254822	-166.749863	295.167725
10100.174726	-224.832855	-166.925186	301.772064
10100.178082	-225.651093	-168.327881	307.733490
10100.181381	-225.241974	-167.743423	313.636475
10100.184715	-226.469330	-167.860321	319.948547
10100.188052	-226.294006	-168.269440	326.436005
10100.191382	-226.644653	-168.795441	333.449432
10100.194712	-226.878448	-168.678558	340.345978
10100.198041	-227.112213	-168.737000	347.184113
10100.201382	-227.170654	-168.620102	353.905334
10100.204711	-226.235535	-168.386322	360.684998
10100.208047	-227.053772	-168.094101	367.873749
10100.211375	-226.469330	-168.210999	374.828735
10100.214708	-225.651093	-167.392746	382.075958
10100.218062	-224.774414	-166.866760	388.738770
10100.221374	-224.189941	-166.340744	396.102875
10100.225635	-222.553497	-164.996506	410.012848
10100.228963	-221.618378	-164.061371	417.902985
10100.232339	-220.215698	-163.009354	426.903564
10100.235140	-218.871429	-161.548218	433.858582
10100.238463	-216.592072	-160.145538	441.281097
10100.241805	-215.014038	-159.151962	449.112793
10100.244710	-213.728241	-157.924622	455.775574
10100.248037	-211.682648	-155.937469	462.730591
10100.251369	-209.578613	-153.365875	469.860901
10100.254710	-206.422577	-152.255417	478.160156
10100.258039	-204.552338	-150.268265	485.290466
10100.261399	-201.513153	-148.398010	493.122131
10100.264708	-198.240204	-145.592636	500.544739
10100.268035	-194.967285	-143.196381	507.032166
10100.271370	-191.752777	-140.624786	515.039124
10100.274721	-188.596741	-138.228516	521.468140
10100.278038	-184.973114	-135.481598	527.546509
10100.281373	-181.466400	-132.559326	535.904175
10100.284738	-177.258331	-129.403275	542.566895
10100.288051	-172.933350	-126.130341	549.288147
10100.291367	-168.608429	-123.558746	554.957336
10100.295997	-159.374054	-115.434830	568.399719
10100.298889	-154.406189	-112.103455	574.068970
10100.302240	-149.146118	-108.304504	579.855042
10100.305159	-144.236694	-104.447113	585.641113
10100.308489	-138.567505	-100.063705	589.966064
10100.311823	-132.664551	-95.972534	595.401489
10100.314702	-127.404442	-91.063126	600.018738
10100.318032	-121.443016	-86.679718	604.869690
10100.321383	-115.072472	-81.945633	608.493286
10100.324697	-109.578606	-77.270020	612.759827
10100.328033	-102.857399	-73.003510	617.143188
10100.331364	-96.253075	-68.152542	620.766785
10100.334698	-89.999413	-63.535358	623.046204
10100.338035	-83.044426	-58.041492	625.676208
10100.341364	-76.790779	-53.541203	627.838684
10100.344692	-68.900642	-47.930447	630.702515
10100.348044	-61.770302	-42.904148	632.280518
10100.351363	-55.282875	-37.176502	633.975464
10100.354694	-47.392761	-32.267094	635.494995
10100.358030	-40.613091	-26.481003	636.313293
10100.361359	-33.482765	-21.337814	636.605469
10100.364692	-26.177086	-15.902397	637.832886
10100.368895	-11.682648	-5.090004	637.657532
10100.372340	-4.084747	0.579193	636.897766
10100.375631	3.396255	5.780830	635.962585
10100.378457	9.942139	10.514904	634.559875
10100.381791	18.124485	16.710112	633.157227
10100.385118	25.196373	21.619520	630.702515
10100.388026	32.209816	27.756283	628.306274
10100.391373	39.106365	33.191700	625.442444
10100.394688	46.295147	38.159554	623.513733
10100.398024	53.367035	43.127411	620.299255
