time (s)	magX	magY	magZ
1632.434965	-345.774414	-178.400940	-342.886627
1632.438241	-351.034485	-181.030975	-362.641144
1632.441604	-356.294556	-182.024551	-383.213928
1632.444909	-360.911743	-183.076569	-404.371124
1632.448242	-363.833984	-184.011688	-425.820587
1632.451568	-366.697815	-184.128586	-448.555817
1632.454926	-368.801880	-184.070129	-471.524841
1632.458240	-370.789001	-183.485687	-496.013428
1632.461566	-371.607239	-182.258331	-519.508484
1632.465752	-369.737000	-177.056686	-570.005249
1632.469098	-367.925171	-174.543549	-594.435425
1632.472447	-363.366455	-170.277023	-620.209839
1632.475356	-358.690857	-166.068970	-646.159546
1632.478693	-352.203369	-160.575104	-670.648193
1632.482089	-344.430176	-154.263016	-696.071899
1632.484943	-336.481567	-147.775574	-719.742310
1632.488232	-325.493835	-140.528351	-743.529541
1632.491566	-314.506165	-132.521332	-766.966064
1632.494906	-300.537720	-124.338989	-788.532471
1632.498263	-285.634155	-114.929291	-809.455933
1632.501567	-270.029236	-105.928696	-829.151978
1632.504898	-252.612534	-95.583878	-848.848022
1632.508234	-234.436020	-85.239044	-864.862061
1632.511578	-214.623032	-73.783752	-879.415039
1632.514900	-193.699600	-63.263592	-892.740479
1632.518234	-171.782593	-52.217411	-904.604858
1632.521570	-150.099350	-40.586788	-914.540649
1632.524899	-126.604324	-28.780834	-922.313843
1632.528230	-102.349503	-16.507305	-927.632446
1632.531565	-78.036240	-5.168907	-931.372925
1632.534900	-52.729401	6.812389	-933.009277
1632.539159	-2.875511	31.476330	-930.613159
1632.542526	21.846874	42.931618	-925.879028
1632.545768	46.744591	54.620689	-919.391602
1632.548652	71.817650	65.666862	-911.209229
1632.551992	95.897133	76.245468	-901.273560
1632.555333	118.807716	87.350082	-888.766235
1632.558228	141.718292	97.694916	-875.732910
1632.561562	163.109283	107.572174	-859.718872
1632.564896	183.857391	116.631210	-843.412598
1632.568225	204.371719	125.456451	-826.171265
1632.571559	222.314423	133.989471	-807.351807
1632.574889	239.438934	142.347168	-787.421997
1632.578229	255.978958	150.003510	-766.031006
1632.581559	270.765625	156.490936	-744.406250
1632.584913	284.383392	163.212143	-721.963135
1632.588224	296.949158	167.712448	-699.227905
1632.591555	307.527771	173.030960	-674.680908
1632.594916	316.879028	177.706604	-652.120972
1632.598254	325.645813	181.739319	-628.099976
1632.601557	332.600830	185.012268	-603.786621
1632.604893	339.029785	187.759201	-579.940918
1632.608222	343.588562	189.454117	-557.205750
1632.612403	350.543518	191.499710	-510.624756
1632.615738	352.004700	192.142593	-487.831085
1632.619098	352.881348	192.376373	-466.030975
1632.621983	353.173584	191.908813	-444.406189
1632.625328	352.355347	190.330795	-423.891876
1632.628691	351.186462	189.454117	-403.319122
1632.631553	348.731750	187.408524	-384.675049
1632.634889	346.627686	185.596725	-365.621857
1632.638246	343.471619	182.440674	-347.971375
1632.641552	340.140259	180.044418	-330.554657
1632.644886	336.341309	177.180588	-313.722412
1632.648220	331.315002	174.316772	-298.935730
1632.651553	326.873169	170.868500	-283.330811
1632.654890	321.729980	167.653992	-267.725891
1632.658255	316.294556	164.030396	-254.575684
1632.661557	310.800690	160.172989	-242.126831
1632.664889	306.417297	157.075394	-229.385742
1632.668221	300.397400	152.984222	-216.936890
1632.671571	294.786682	149.652832	-205.773819
1632.674881	289.000580	145.678558	-194.902985
1632.678216	282.863831	142.347168	-184.032150
1632.681551	276.317932	138.665115	-158.900635
1632.685756	264.628876	131.184097	-156.679718
1632.689163	258.375214	128.086502	-147.796021
1632.692520	253.056686	124.755112	-140.139679
1632.695388	246.744598	121.715958	-131.957336
1632.698635	240.257156	118.150787	-124.651672
1632.702018	234.412628	115.696075	-117.521332
1632.704883	229.210983	112.247803	-111.559906
1632.708212	223.191116	109.383987	-106.007599
1632.711547	217.463470	106.403275	-99.286385
1632.714909	212.086502	103.656342	-94.610756
1632.718208	207.235535	101.026306	-89.350677
1632.721544	201.683228	98.454712	-84.265930
1632.724882	196.715363	95.707779	-79.590302
1632.728228	192.098190	93.895966	-74.797783
1632.731544	186.662766	91.032150	-70.180595
1632.734879	181.987152	88.928116	-65.154297
1632.738207	177.194611	86.707191	-60.537117
1632.741542	172.752777	84.018707	-57.088840
1632.744873	168.077148	81.973114	-53.640564
1632.748207	163.752197	79.343071	-50.601402
1632.751543	159.544128	78.291061	-47.270020
1632.754922	155.043823	76.128578	-44.055527
1632.759087	147.913498	72.271187	-38.094101
1632.762386	143.588547	70.810059	-36.516075
1632.765721	140.666275	68.764465	-33.243134
1632.768630	136.750427	67.186440	-30.905323
1632.771974	133.068390	65.549973	-28.509064
1632.775298	129.970779	63.913502	-26.931038
1632.778210	126.931618	61.692577	-24.885448
1632.781544	124.009354	60.523670	-22.313854
1632.784870	121.145523	59.062534	-20.794277
1632.788205	118.047928	57.893631	-19.508476
1632.791540	114.891876	55.964931	-18.105789
1632.794920	112.729401	54.737579	-16.410873
1632.798203	110.508476	53.685562	-16.001759
1632.801564	107.995323	52.224430	-14.657513
1632.804873	105.949738	51.347748	-13.079491
1632.808202	103.553482	49.711281	-12.261250
1632.811535	101.507889	48.542374	-11.969028
1632.814870	99.403854	47.665691	-10.800121
1632.818200	97.066040	46.613678	-9.806545
1632.821540	95.429573	45.444771	-9.222092
1632.824867	93.851547	43.866745	-8.170078
1632.828201	91.630623	43.048508	-7.234951
1632.832402	87.890121	41.704266	-5.656929
1632.835751	85.961426	40.944477	-5.598484
1632.838646	84.734070	39.600235	-4.546467
1632.841982	83.506721	39.132671	-4.020462
1632.845332	81.928696	38.255989	-3.728233
1632.848216	80.233780	37.379311	-3.085327
1632.851529	78.772644	36.619522	-2.793106
1632.854866	76.902397	36.093513	-2.150208
1632.858201	75.733490	34.924606	-1.448860
1632.861531	74.739914	34.983051	-1.098190
1632.864862	73.161896	34.573933	-0.630623
1632.868196	71.992989	33.580360	-0.864410
1632.871532	70.064285	33.171246	-0.630623
1632.874862	68.778488	33.054352	-0.338402
1632.878202	67.668030	32.119228	0.888954
1632.881531	65.680885	31.008766	0.362938
1632.884861	65.037987	31.417885	1.181175
1632.888215	64.102859	30.599649	1.356514
1632.891523	62.758621	29.430742	1.940971
1632.894864	61.531265	29.080070	2.466972
1632.898190	60.479252	28.846289	2.350082
1632.902462	58.375217	27.326710	2.876091
1632.905781	57.498539	27.151373	2.934540
1632.909123	56.855640	26.450029	3.226768
1632.911957	56.212738	26.333138	3.460548
1632.915278	55.394505	26.099358	3.928108
1632.918613	54.225597	25.339567	3.635880
1632.921529	53.641144	25.456459	3.752769
1632.924859	52.998245	25.398012	4.454117
1632.928191	52.998245	24.813559	4.103439
1632.931524	51.829338	24.462887	4.687897
1632.934856	51.595558	24.345997	3.869659
1632.938190	51.011101	23.878433	4.278778
1632.941520	50.660431	23.235535	4.454117
1632.944871	49.842197	22.884863	3.811218
1632.948187	49.374634	23.060200	4.161888
1632.951519	49.433079	23.118645	5.097015
1632.954853	48.731735	22.300409	4.746346
1632.958187	48.147282	22.008183	5.564583
1632.961521	47.855053	21.949738	4.863235
1632.964848	47.445938	21.540619	3.811218
1632.968233	46.861481	21.832846	4.921677
1632.971520	46.627701	21.073057	4.103439
1632.975706	45.926357	21.306839	4.337227
1632.979031	45.926357	21.306839	4.103439
1632.982367	44.991234	21.014610	5.155457
1632.985279	45.458794	20.488604	4.687897
1632.988620	45.166569	20.488604	4.863235
1632.991945	44.465225	20.722385	4.804787
1632.994849	43.763878	20.430159	4.571007
1632.998184	43.939217	20.021040	4.863235
1633.001522	43.997662	19.962595	3.869659
1633.004847	43.646988	19.553478	4.337227
1633.008183	43.530098	19.378141	4.571007
1633.011524	43.120979	19.611923	4.863235
1633.014851	42.653419	19.728813	4.103439
1633.018214	42.536530	19.611923	5.155457
1633.021516	42.361191	19.670368	4.804787
1633.024848	41.952072	19.962595	4.337227
1633.028182	41.835182	19.611923	4.687897
1633.031531	41.893631	19.436586	5.038567
1633.034849	41.309174	19.495031	5.564583
1633.038181	41.601402	19.378141	5.681473
1633.041510	41.426064	19.261250	5.389236
1633.044847	41.776737	19.261250	5.798363
1633.049043	40.958504	19.261250	5.506134
1633.052384	41.016949	18.969025	5.739922
1633.055790	41.192284	18.852133	5.564583
1633.058620	41.776737	19.261250	6.149033
1633.061977	41.133839	18.793688	5.506134
1633.065270	41.250729	19.144360	5.564583
1633.068175	41.016949	18.793688	5.330795
1633.071514	41.484512	18.852133	5.798363
1633.074861	41.542953	18.910580	5.623024
1633.078174	41.426064	18.969025	5.739922
1633.081516	41.718292	18.618351	5.506134
1633.084842	41.601402	18.676796	4.629456
1633.088181	41.601402	19.085915	4.746346
1633.091507	41.659847	19.085915	5.798363
1633.094841	41.893631	19.144360	5.506134
1633.098176	42.185856	19.611923	5.272346
1633.101504	42.594971	19.670368	4.980125
1633.104865	43.237869	19.436586	4.804787
1633.108176	43.413208	19.495031	4.512566
1633.111502	43.822327	19.261250	4.220337
1633.114843	43.763878	19.495031	4.921677
1633.118177	44.231445	19.728813	5.038567
1633.122441	45.225014	20.021040	5.155457
1633.125744	44.932785	20.488604	4.687897
1633.129019	45.634132	20.371712	5.213905
1633.131923	45.926357	20.722385	4.571007
1633.135283	46.452366	20.605494	5.506134
1633.138598	46.744591	21.131502	4.278778
1633.141507	46.686150	21.189947	4.629456
1633.144835	47.212154	21.540619	4.044998
1633.148171	48.030392	21.774401	4.161888
1633.151506	48.264175	21.599064	4.571007
1633.154834	48.439507	21.774401	4.220337
1633.158161	48.907074	21.891293	4.512566
1633.161502	48.848625	21.949738	4.921677
1633.164833	49.725304	22.651081	4.454117
1633.168169	50.309761	22.651081	4.571007
1633.171503	50.426651	22.943308	3.694328
1633.174830	51.011101	23.352425	5.155457
1633.178199	51.186440	23.644651	3.986549
1633.181499	51.595558	23.644651	3.986549
1633.184832	53.115135	23.878433	3.635880
1633.188161	53.582699	24.930450	3.752769
1633.191508	54.284042	24.813559	3.869659
1633.195673	54.926941	25.105785	3.168320
1633.199037	56.563412	25.514904	3.109879
1633.202374	57.264755	25.748684	3.168320
1633.205275	57.381645	26.742256	3.051430
1633.208622	58.433662	27.560492	2.992981
1633.211502	59.368790	28.437172	2.350082
1633.214825	60.654587	27.852718	1.999413
1633.218176	61.589714	27.969608	2.116302
1633.221519	62.524837	28.086498	0.538284
1633.224826	63.401520	29.956751	0.538284
1633.228167	64.570427	30.190533	0.830505
1633.231491	65.680885	30.541204	-0.572182
1633.234831	67.668030	30.950321	-0.338402
1633.238159	69.129166	31.651665	-0.338402
1633.241490	70.531853	32.411453	-0.922859
1633.244829	71.583870	32.995911	-0.805962
1633.248163	73.044998	33.229691	-1.565750
1633.251494	74.564583	34.047924	-2.793106
1633.254827	75.207481	34.340153	-3.085327
1633.258163	77.486847	34.690823	-3.611340
1633.261489	78.831093	35.275276	-3.319111
1633.265713	82.045586	37.496201	-4.371132
1633.269107	83.097603	37.963764	-4.488026
1633.272415	85.493866	38.372883	-6.124493
1633.275264	86.779663	39.308006	-6.767387
1633.278605	88.591461	39.717125	-7.819405
1633.281910	90.286377	41.236702	-8.462307
1633.284825	92.156631	41.353596	-8.871422
1633.288156	93.909996	42.697838	-9.689655
1633.291489	95.721802	43.340736	-10.332558
1633.294820	97.299820	43.983635	-10.858562
1633.298155	99.754532	45.444771	-11.969028
1633.301488	101.741669	46.555229	-12.495033
1633.304824	103.670364	47.841026	-13.780834
1633.308151	106.066628	48.367035	-14.482178
1633.311482	108.287552	49.769726	-14.949741
1633.314818	110.917587	51.406197	-16.586212
1633.318157	113.021622	51.581532	-17.872009
1633.321489	115.651665	53.685562	-18.865578
1633.324813	118.573929	55.263588	-20.735828
1633.328148	121.203972	56.198715	-21.612511
1633.331482	123.541794	57.718292	-23.132088
1633.334819	126.990067	58.828754	-23.833431
1633.339051	133.711273	62.043251	-27.457047
1633.342325	136.750427	63.738163	-29.385742
1633.345662	139.906494	65.199295	-31.782001
1633.348574	143.588547	67.069550	-33.476917
1633.351926	147.621277	68.881363	-35.931625
1633.355245	150.894211	70.400940	-37.860321
1633.358146	154.693161	72.212738	-40.665695
1633.361486	158.901230	73.323204	-44.464645
1633.364810	164.161316	75.018112	-46.860901
1633.368144	167.960266	76.596146	-49.666279
1633.371483	172.402100	78.992401	-53.932793
1633.374812	177.077728	81.037994	-57.322620
1633.378190	182.220917	83.142021	-60.946232
1633.381481	186.896545	85.070724	-65.037407
1633.384818	192.857971	86.824081	-70.589714
1633.388141	197.416718	89.687897	-75.148453
1633.391474	202.501465	91.382812	-79.940971
1633.394832	208.229095	93.954407	-85.843956
1633.398146	213.898300	96.292221	-90.636475
1633.401473	219.742828	98.337814	-96.305672
1633.404807	225.002914	100.909409	-102.793106
1633.408146	230.379898	103.597900	-109.572769
1633.412358	242.361191	108.857971	-123.424316
1633.415682	248.322617	111.429581	-131.080658
1633.419074	254.342484	113.182938	-139.029236
1633.421919	260.303894	116.280533	-147.094681
1633.425259	265.914673	118.852127	-156.387497
1633.428602	272.226746	121.248398	-165.680298
1633.431472	278.012848	123.819992	-174.096436
1633.434812	283.740479	126.917587	-184.675049
1633.438167	290.052612	129.606079	-195.312103
1633.441474	296.072479	132.060791	-206.007599
1633.444807	301.566345	134.515488	-217.112213
1633.448134	307.761536	137.203979	-228.450623
1633.451476	313.138489	140.418472	-242.185272
1633.454804	318.281677	143.106964	-255.160141
1633.458134	324.126221	144.977203	-268.251892
1633.461475	329.269409	147.490356	-283.330811
1633.464809	334.997070	150.412628	-297.649902
1633.468139	340.257141	151.873749	-313.430176
1633.471474	344.640564	154.036240	-329.853302
1633.474802	348.907043	155.789597	-346.334869
1633.478137	353.232056	157.016953	-364.336060
1633.481479	356.563416	158.770309	-398.000580
1633.485731	363.109314	159.822327	-422.313843
1633.489059	364.921082	160.172989	-443.354187
1633.492322	366.090027	159.646988	-464.219147
1633.495237	367.551147	159.354767	-486.311493
1633.498560	367.843384	158.711853	-508.696106
1633.501893	366.557556	157.016953	-531.840454
1633.504798	364.511963	154.445343	-555.744568
1633.508133	361.414368	151.698425	-579.531860
1633.511469	358.024536	148.133255	-603.260620
1633.514803	352.881348	144.509644	-627.164795
1633.518133	346.627686	139.600235	-651.653442
1633.521462	339.263611	134.573929	-675.557617
1633.524819	330.263000	128.554062	-699.987671
1633.528135	320.093506	122.534195	-723.190552
1633.531466	309.514893	115.403854	-746.218018
1633.534792	297.592041	108.215073	-767.667480
1633.538133	283.214478	99.798950	-789.993652
1633.541462	268.018677	91.265930	-810.507935
1633.544798	251.361771	82.148453	-829.561035
1633.548138	233.477493	72.504967	-847.796021
1633.551466	214.950317	62.335476	-864.803589
1633.556059	174.038574	41.528931	-895.136841
1633.558975	152.355347	30.307423	-906.942749
1633.562368	130.438339	18.501461	-918.514893
1633.565218	107.293976	6.929281	-928.099976
1633.568560	83.623611	-4.642899	-935.113403
1633.571915	58.959671	-15.864407	-940.373535
1633.574790	34.412621	-27.787258	-943.471069
1633.578123	10.625362	-39.476330	-944.464600
1633.581458	-14.213913	-51.106953	-943.938599
1633.584787	-39.345406	-62.620693	-941.133301
1633.588160	-63.132675	-73.783752	-937.217407
1633.591463	-86.861496	-85.239044	-930.379272
1633.594793	-110.005844	-95.700760	-922.255371
1633.598119	-133.150192	-106.513153	-911.559937
1633.601460	-155.125671	-117.383987	-898.701904
1633.604828	-176.165985	-126.559906	-885.259521
1633.608127	-196.154312	-135.794281	-869.771484
1633.611465	-214.506149	-145.496201	-852.354736
1633.614794	-233.734665	-153.912338	-834.002930
1633.618118	-250.157822	-162.328461	-814.657471
1633.621456	-266.639404	-168.874344	-794.260132
1633.624783	-281.075378	-176.238464	-773.219727
1633.629011	-306.732910	-187.810623	-728.216797
1633.632333	-317.662170	-193.187607	-704.020508
1633.635722	-326.779663	-198.213898	-680.116333
1633.638566	-335.955566	-202.012863	-655.452393
1633.641897	-342.209229	-204.876678	-630.963745
1633.645211	-347.820007	-208.032715	-606.416748
1633.648155	-352.670959	-210.253662	-581.811157
1633.651450	-355.768555	-210.838120	-557.731750
1633.654790	-358.281738	-211.539459	-533.301575
1633.658119	-359.976624	-212.182343	-509.689636
1633.661449	-360.853271	-211.948578	-486.077759
1633.664785	-360.210449	-211.597885	-462.816467
1633.668116	-358.749268	-210.545898	-440.957916
1633.671448	-356.995911	-209.026306	-418.573364
1633.674785	-355.067200	-207.097595	-397.766815
1633.678112	-351.443604	-205.578033	-377.427826
1633.681446	-347.878479	-202.246643	-358.374634
1633.684784	-343.261230	-199.558151	-339.379913
1633.688116	-338.585632	-196.869675	-320.852722
1633.691465	-334.143799	-193.304504	-305.364685
1633.694782	-328.708374	-189.739334	-288.883118
1633.698117	-323.682068	-186.115738	-272.927521
1633.702378	-311.876099	-178.751602	-243.354187
1633.705629	-306.382202	-174.426651	-231.372894
1633.708965	-300.946838	-171.153717	-218.339569
1633.711875	-294.576294	-166.653427	-205.949158
1633.715217	-287.329041	-163.263596	-194.669205
1633.718538	-281.133850	-158.704865	-183.739929
1633.721444	-275.873779	-154.964355	-173.511978
1633.724783	-269.912354	-151.165405	-163.517822
1633.728111	-263.249573	-147.074234	-154.458801
1633.731448	-256.879028	-143.099945	-145.867340
1633.734794	-251.618942	-139.125656	-136.808304
1633.738106	-245.189957	-134.976028	-129.151962
1633.741444	-239.929855	-131.995331	-121.787842
1633.744776	-233.442429	-128.488602	-114.189949
1633.748108	-226.955002	-125.215668	-108.228531
1633.751439	-221.753372	-121.358276	-102.150208
1633.754775	-216.259506	-118.319107	-95.253654
1633.758104	-210.298050	-115.455292	-88.883110
1633.761438	-205.388657	-112.416138	-83.623032
1633.764810	-199.836349	-109.143188	-78.596733
1633.768109	-194.225601	-106.220932	-73.395096
1633.771441	-189.725296	-103.357101	-53.406784
1633.775624	-180.023392	-98.155472	-60.011108
1633.778991	-175.113968	-95.759201	-55.569260
1633.782317	-171.139694	-93.538284	-51.887203
1633.785225	-166.580933	-91.375809	-48.672707
1633.788560	-162.372879	-88.044418	-44.873760
1633.791879	-158.106369	-85.589706	-41.425484
1633.794772	-153.956741	-83.427246	-38.678555
1633.798111	-149.281113	-81.849213	-36.574524
1633.801434	-146.183517	-79.686722	-33.126244
1633.804775	-142.326111	-77.232025	-30.729984
1633.808109	-138.877838	-75.127991	-28.392174
1633.811436	-135.195801	-74.192871	-26.346581
1633.814766	-131.396835	-71.562836	-23.833431
1633.818102	-128.123901	-70.393921	-22.430744
1633.821476	-124.967865	-67.646988	-19.800705
1633.824767	-122.045593	-66.828751	-18.398018
1633.828106	-119.181763	-65.192291	-16.527763
1633.831435	-116.084152	-63.380482	-15.183525
1633.834766	-113.571014	-61.802456	-13.897728
1633.838098	-110.707184	-60.575100	-12.495033
1633.841434	-108.486267	-58.763294	-11.092342
1633.845702	-102.817078	-56.074810	-8.929871
1633.849032	-100.596146	-55.022793	-7.702515
1633.852360	-99.076569	-53.795444	-7.585625
1633.855198	-96.446533	-52.451199	-6.884281
1633.858554	-94.926941	-51.106953	-5.540039
1633.861861	-92.296906	-50.288723	-4.663357
1633.864763	-90.601990	-48.886036	-3.552895
1633.868097	-89.082413	-48.535358	-2.968437
1633.871448	-87.445938	-47.249561	-1.974869
1633.874767	-86.218582	-46.489773	-1.273529
1633.878091	-84.991226	-45.203976	-1.215080
1633.881428	-82.478088	-44.385738	-0.396843
1633.884764	-81.659851	-43.450611	-0.046173
1633.888096	-79.672699	-42.690823	-0.046173
1633.891428	-77.744003	-41.989475	0.538284
1633.894759	-76.867325	-40.703678	1.765633
1633.898102	-74.938629	-40.119228	1.824081
1633.901432	-74.061951	-38.950321	2.876091
1633.904761	-72.600815	-38.424313	2.116302
1633.908092	-71.198135	-38.015194	2.350082
1633.911430	-69.620102	-37.313854	2.876091
1633.914792	-68.918762	-36.437176	3.869659
1633.918946	-65.996490	-35.443600	4.220337
1633.922271	-65.587372	-34.800697	4.746346
1633.925605	-64.126236	-33.748684	4.980125
1633.928536	-62.898880	-33.573349	5.389236
1633.931845	-62.548218	-33.164230	5.623024
