time (s)	magX	magY	magZ
2612.137859	70.473404	53.977791	-6.825836
2612.141114	69.596725	53.218002	-6.416718
2612.144447	68.369377	52.049095	-5.773823
2612.147346	66.323784	51.055523	-4.312687
2612.150712	65.213326	49.886616	-5.014030
2612.154022	63.576855	49.477501	-4.488026
2612.156921	62.641727	48.367035	-4.020462
2612.160261	61.765049	47.841026	-3.494450
2612.163599	60.713032	46.789013	-3.962013
2612.166926	59.894798	46.379894	-2.851547
2612.170255	59.135010	46.029221	-2.559326
2612.173586	57.966103	45.094097	-2.267097
2612.176921	57.089420	44.275864	-1.857979
2612.180277	56.446522	43.983635	-1.507309
2612.183607	55.745178	43.749855	-1.682640
2612.186922	54.751606	42.405609	-0.981300
2612.190255	54.167152	41.470486	-1.215080
2612.193621	53.290474	41.587376	-0.572182
2612.196920	52.881355	41.295151	-0.689072
2612.200249	52.121567	40.886032	-0.221512
2612.203585	51.595558	40.535358	-0.046173
2612.206942	51.069550	39.600235	0.421387
2612.211098	50.485096	38.431328	-0.104622
2612.214450	49.374634	38.139099	0.538284
2612.217797	49.082405	37.613091	0.655174
2612.220698	48.497955	37.437756	0.538284
2612.224048	48.205727	37.087082	0.070717
2612.227426	47.562828	36.502632	0.713615
2612.230254	47.212154	36.093513	0.947395
2612.233586	47.212154	35.509060	0.713615
2612.236946	46.277031	35.684395	1.356514
2612.240249	46.160141	35.509060	1.181175
2612.243580	45.166569	34.807716	1.473404
2612.246917	45.225014	35.392166	1.181175
2612.250263	44.757454	34.515488	1.298065
2612.253586	44.757454	34.457043	1.882523
2612.256918	43.997662	33.989479	1.181175
2612.260248	43.237869	34.047924	1.473404
2612.263591	43.530098	33.872589	2.057861
2612.266909	43.179428	33.638809	1.765633
2612.270248	43.004089	33.112801	1.707184
2612.273585	42.594971	32.879017	1.882523
2612.276918	42.478081	32.469902	1.940971
2612.280265	42.010521	32.703682	2.057861
2612.284518	41.776737	32.119228	1.999413
2612.287832	41.718292	31.768557	2.174751
2612.291169	41.016949	32.353008	1.765633
2612.294023	40.958504	31.476330	1.824081
2612.297327	40.607830	31.417885	1.882523
2612.300666	40.374050	31.359440	1.882523
2612.303582	40.198715	31.593220	2.116302
2612.306916	40.666275	31.067211	2.116302
2612.310240	39.789597	31.067211	2.057861
2612.313576	39.380478	31.242548	2.116302
2612.316911	39.906487	31.242548	2.350082
2612.320238	39.731152	30.716539	2.759201
2612.323597	39.497368	30.716539	3.343658
2612.326908	39.555817	30.658094	2.817642
2612.330245	39.497368	30.774986	2.759201
2612.333568	39.614258	31.125658	2.291641
2612.336906	39.380478	30.833431	2.116302
2612.340237	39.614258	30.599649	2.759201
2612.343570	39.964931	30.891876	2.642311
2612.346912	39.672707	30.482758	1.824081
2612.350284	40.081825	31.125658	2.759201
2612.354849	40.315605	30.599649	2.116302
2612.357751	39.964931	30.248978	2.116302
2612.361157	41.192284	30.774986	1.824081
2612.364442	40.958504	30.891876	1.882523
2612.367363	41.075394	30.482758	2.700752
2612.370694	40.724724	31.125658	1.531845
2612.373567	41.367622	31.242548	1.940971
2612.376902	40.666275	31.359440	1.824081
2612.380234	41.075394	31.300993	1.005844
2612.383605	41.367622	31.008766	1.531845
2612.386904	41.367622	31.359440	1.473404
2612.390241	41.659847	31.768557	1.239624
2612.393573	41.835182	32.119228	1.122734
2612.396899	42.361191	32.002338	1.239624
2612.400240	42.828754	31.943892	1.356514
2612.403569	43.179428	31.710112	1.707184
2612.406896	43.120979	32.002338	1.181175
2612.410261	43.004089	32.236118	1.181175
2612.413567	43.646988	32.528347	0.772064
2612.416905	44.172997	33.171246	0.187607
2612.420229	44.406776	32.995911	0.596725
2612.423573	44.406776	33.346581	0.713615
2612.427760	45.400352	33.580360	0.830505
2612.431160	45.692577	33.872589	0.479836
2612.434490	46.101692	34.924606	1.005844
2612.437348	46.160141	34.573933	0.830505
2612.440659	46.744591	35.216831	0.012268
2612.443991	46.510811	35.801285	0.187607
2612.446892	47.212154	35.099941	0.421387
2612.450231	47.913498	35.567505	0.304497
2612.453599	48.497955	36.268848	-0.104622
2612.456897	48.497955	35.918175	-0.163063
2612.460228	49.140854	36.677967	-0.221512
2612.463560	50.075977	37.496201	-0.689072
2612.466902	50.601986	37.437756	-0.572182
2612.470226	50.894211	37.671535	-0.630623
2612.473564	52.238457	38.548218	-1.039749
2612.476888	52.472237	38.840446	-1.273529
2612.480227	53.290474	38.957336	-1.565750
2612.483558	53.991817	39.775570	-1.682640
2612.486895	54.926941	39.600235	-1.682640
2612.490226	55.511395	40.593803	-1.273529
2612.493551	56.504967	40.944477	-2.734657
2612.496909	57.264755	41.938049	-3.436001
2612.501159	58.901226	43.282291	-4.195793
2612.504407	60.070133	43.808296	-4.546467
2612.507737	61.180595	44.451199	-5.130920
2612.510663	61.297485	45.210987	-5.656929
2612.513977	62.700172	46.029221	-5.949154
2612.517307	63.810635	46.613678	-5.832264
2612.520223	64.570427	47.256577	-6.533607
2612.523550	65.622444	48.250145	-7.293400
2612.526892	66.849792	48.893044	-7.819405
2612.530224	69.187607	49.828171	-8.696087
2612.533581	69.655174	50.120399	-8.637642
2612.536884	70.940971	51.406197	-9.046761
2612.540218	72.285210	52.224430	-9.514324
2612.543579	73.512566	53.334892	-10.741673
2612.546884	74.973701	54.036236	-11.150791
2612.550219	76.493279	54.328461	-12.319698
2612.553554	78.012856	55.731152	-13.021042
2612.556883	79.006432	56.607834	-13.313274
2612.560220	80.292229	57.659847	-14.014618
2612.563550	81.694916	58.536530	-14.540623
2612.566884	83.740501	59.763878	-14.774403
2612.570215	85.143188	60.114555	-15.884869
2612.574419	88.416130	62.686150	-17.579781
2612.577807	90.169495	63.796612	-18.690243
2612.581140	91.513733	65.257744	-20.618938
2612.584013	93.793106	66.660431	-21.320282
2612.587329	95.429573	68.647568	-22.956753
2612.590255	97.299820	69.758041	-23.541206
2612.593549	98.936295	70.985390	-24.768559
2612.596884	101.624786	72.388077	-26.405029
2612.600220	103.904144	73.323204	-27.398602
2612.603549	105.774399	74.784332	-29.093517
2612.606883	108.404434	76.479248	-30.203976
2612.610214	110.742256	78.115723	-32.074226
2612.613543	113.080070	79.752197	-33.944477
2612.616882	115.476334	81.856224	-35.347168
2612.620241	117.697250	83.551147	-37.918762
2612.623542	120.444183	85.304504	-39.847458
2612.626886	123.658676	87.291641	-42.068382
2612.630217	127.048508	89.629456	-44.815315
2612.633545	130.730560	91.441254	-47.503803
2612.636877	133.185272	93.486847	-50.133842
2612.640208	136.224426	95.181763	-52.997665
2612.643542	139.731140	97.636475	-56.153713
2612.647799	146.452362	101.727646	-61.822914
2612.651142	149.900635	104.007019	-65.212746
2612.653991	154.050262	106.520157	-69.362366
2612.657300	157.089417	108.741089	-73.102867
2612.660639	161.063705	110.903564	-76.901817
2612.663540	164.804199	113.825836	-81.343658
2612.666876	168.252472	115.929871	-85.025719
2612.670204	172.168335	118.559906	-89.292229
2612.673543	176.084167	121.599060	-94.669205
2612.676875	179.766205	124.112213	-99.987732
2612.680201	183.331390	127.268265	-104.838692
2612.683550	187.948578	129.781418	-110.566338
2612.686873	191.689072	132.820572	-115.767975
2612.690206	197.124496	135.684387	-122.898308
2612.693534	200.397430	138.255981	-129.035065
2612.696870	204.780823	141.528931	-135.522507
2612.700208	209.047348	143.866745	-142.360611
2612.703536	213.489182	146.613678	-149.549393
2612.706872	217.521912	149.360611	-157.614838
2612.710201	221.729980	152.458206	-165.446533
2612.713546	225.470490	155.555817	-173.979538
2612.717740	234.061951	161.108124	-192.214508
2612.721046	237.919342	162.978363	-201.682648
2612.724387	243.004089	166.426651	-211.735245
2612.727300	246.744598	168.355347	-222.313858
2612.730621	251.011108	170.926941	-233.067795
2612.733959	255.452957	173.381638	-245.224442
2612.736866	258.492126	175.836349	-256.913513
2612.740199	263.518402	177.531265	-269.245483
2612.743535	266.557556	179.401505	-281.343689
2612.746864	269.070740	180.862640	-295.721222
2612.750225	272.811218	182.206894	-308.462311
2612.753531	275.616577	182.616013	-322.956757
2612.756906	278.188202	184.427811	-337.626526
2612.760201	280.116882	184.836929	-353.348358
2612.763535	282.279358	184.720047	-370.005280
2612.766865	283.623596	184.836929	-385.201050
2612.770203	284.266541	184.720047	-402.500885
2612.773528	284.734070	184.310928	-419.391571
2612.776863	284.850952	182.616013	-436.983643
2612.780206	284.617187	180.979538	-454.751038
2612.783528	282.980713	179.401505	-472.050842
2612.786866	281.168915	176.070129	-490.987122
2612.791070	275.558167	169.699585	-527.398621
2612.794437	272.109863	165.491531	-545.516663
2612.797784	267.434265	161.341904	-563.634705
2612.800654	261.765045	155.906479	-581.928101
2612.803983	255.452957	149.886612	-599.987671
2612.807293	248.088837	143.399170	-617.988892
2612.810189	239.614258	136.677963	-635.580933
2612.813523	230.847458	129.781418	-652.296265
2612.816858	221.554642	121.774399	-669.245483
2612.820197	211.092926	113.592056	-685.668579
2612.823525	199.520737	104.240799	-700.572144
2612.826861	187.188782	94.772644	-715.241943
2612.830190	174.330795	84.369377	-729.385742
2612.833523	161.063705	73.790764	-742.302124
2612.836888	147.329041	63.270603	-753.815918
2612.840194	132.074814	52.165985	-764.686768
2612.843521	116.762131	40.535358	-774.505493
2612.846859	100.631210	27.502045	-782.220337
2612.850189	84.675629	15.403857	-788.649292
2612.853525	67.317360	2.253653	-794.201660
2612.856855	49.900642	-10.545879	-798.409668
2612.860193	32.659264	-24.046757	-801.215088
2612.864443	-2.466393	-50.054943	-803.085327
2612.867763	-19.532433	-63.380482	-800.981323
2612.871031	-36.832260	-76.881348	-797.883667
2612.873941	-54.424309	-89.447113	-793.850952
2612.877281	-71.490356	-102.597321	-787.597290
2612.880205	-87.738174	-115.338409	-780.408569
2612.883523	-103.167740	-127.144363	-771.232666
2612.886849	-118.421967	-138.248993	-760.712402
2612.890184	-133.383987	-149.704269	-748.789673
2612.893519	-147.936874	-160.633545	-736.691406
2612.896851	-161.087082	-170.686157	-722.197021
2612.900188	-173.594376	-180.154297	-706.650513
2612.903522	-184.932785	-188.804214	-691.279419
2612.906853	-196.680313	-197.571014	-673.745728
2612.910185	-206.616013	-204.467575	-656.855103
2612.913523	-215.908829	-211.188782	-638.327881
2612.916853	-224.441849	-216.565750	-620.560425
2612.920182	-232.273544	-221.942734	-600.922852
2612.923524	-238.994736	-227.027481	-582.395630
2612.926852	-245.189957	-231.001740	-562.407349
2612.930186	-250.566910	-234.099365	-542.185303
2612.934383	-257.931030	-238.774994	-503.552887
2612.937697	-261.145508	-239.826996	-485.142578
2612.941047	-263.541809	-241.112793	-466.264771
2612.943939	-264.827576	-240.762146	-447.036224
2612.947293	-266.230286	-240.879028	-428.567505
2612.950626	-265.996521	-240.294556	-409.514343
2612.953512	-266.230286	-239.008789	-391.863831
2612.956865	-265.061401	-238.015198	-374.388672
2612.960179	-265.412048	-236.320282	-357.556427
2612.963514	-263.658691	-233.924011	-341.951477
2612.966853	-261.203979	-231.410889	-325.995911
2612.970175	-258.924622	-228.547058	-310.800110
2612.973509	-256.528381	-224.806549	-297.357697
2612.976838	-254.190536	-222.527191	-283.681488
2612.980180	-250.391586	-219.078918	-269.946808
2612.983509	-247.469315	-216.273514	-256.621277
2612.986840	-244.254837	-212.416138	-243.763306
2612.990181	-240.865005	-209.844543	-231.665100
2612.993506	-236.540024	-206.104034	-219.157806
2612.996843	-232.215073	-202.363525	-208.637634
2613.000171	-228.299240	-198.097031	-197.708359
2613.003513	-223.623611	-194.414963	-187.305084
2613.007725	-215.616623	-186.758636	-167.784332
2613.011149	-210.765610	-182.901230	-158.842194
2613.014448	-206.499130	-179.862061	-150.309174
2613.017312	-201.765060	-175.128006	-142.302155
2613.020594	-197.206314	-171.153717	-134.704269
2613.023934	-192.589127	-167.471649	-126.931038
2613.026837	-188.673294	-163.964935	-118.865578
2613.030176	-184.289886	-160.107544	-112.495033
2613.033502	-180.607849	-156.425476	-107.118057
2613.036837	-175.347763	-153.152542	-101.215088
2613.040174	-171.724136	-149.002930	-95.428993
2613.043504	-167.574524	-145.729996	-89.993576
2613.046840	-163.366455	-142.690826	-85.142609
2613.050173	-159.567505	-138.891876	-79.473412
2613.053519	-155.534775	-135.969604	-75.206902
2613.056839	-151.969604	-132.521332	-70.355934
2613.060168	-148.579788	-129.365280	-66.498543
2613.063496	-145.131485	-126.618362	-61.939804
2613.066830	-141.040329	-123.286972	-58.433083
2613.070168	-137.942719	-120.189362	-54.166573
2613.073499	-134.611343	-117.500885	-50.718296
2613.076875	-130.753952	-114.753937	-47.620693
2613.081023	-125.961426	-109.902985	-42.419056
2613.084348	-122.337814	-106.922272	-39.379898
2613.087674	-120.058441	-105.285812	-37.042084
2613.090594	-116.843948	-102.305084	-35.347168
2613.093923	-114.213913	-99.324371	-33.476917
2613.097284	-111.174744	-97.220337	-30.788429
2613.100159	-108.603149	-95.116302	-28.742844
2613.103497	-106.440674	-93.246063	-26.405029
2613.106826	-104.044418	-90.849792	-25.119232
2613.110157	-101.531265	-88.687317	-23.482761
2613.113499	-99.602570	-86.992401	-22.313854
2613.116852	-97.030975	-85.531281	-20.092930
2613.120155	-95.511398	-82.959671	-18.456463
2613.123497	-93.582703	-81.381653	-16.878433
2613.126833	-91.770905	-80.329636	-16.644653
2613.130163	-89.316193	-78.400940	-15.183525
2613.133498	-87.971954	-76.355347	-14.073059
2613.136831	-85.926361	-75.303329	-13.254826
2613.140175	-83.530106	-73.608414	-10.858562
2613.143496	-82.536530	-71.796616	-11.033901
2613.146823	-81.309174	-70.452362	-9.163651
2613.150162	-79.146698	-68.991241	-9.046761
2613.154362	-76.282867	-66.478088	-7.001171
2613.157707	-74.412613	-65.835190	-6.358276
2613.160618	-72.834595	-63.906490	-5.949154
2613.163937	-71.431915	-62.679134	-4.371132
2613.167332	-70.029221	-61.393337	-3.786682
2613.170157	-69.327881	-60.165989	-3.611340
2613.173495	-67.340729	-59.639973	-3.319111
2613.176821	-66.230270	-58.646404	-2.851547
2613.180157	-65.061371	-57.360607	-1.390419
2613.183528	-63.658676	-56.542377	-1.156639
2613.186822	-62.898880	-55.899471	-0.922859
2613.190162	-61.671539	-54.730564	-0.572182
2613.193485	-60.444183	-54.321453	0.129158
2613.196822	-59.742844	-52.801868	-0.104622
2613.200152	-58.223259	-52.626537	0.538284
2613.203488	-57.288132	-51.340740	0.888954
2613.206818	-55.885445	-49.996494	0.888954
2613.210150	-55.768562	-49.762707	0.947395
2613.213488	-54.482758	-48.535358	1.940971
2613.216819	-53.839859	-47.892460	2.934540
2613.220148	-53.255402	-46.782001	2.759201
2613.224419	-51.911163	-46.139103	2.174751
2613.227783	-50.216248	-45.203976	2.583862
2613.231023	-49.514900	-44.911747	3.518990
2613.233918	-49.047340	-44.385738	2.934540
2613.237247	-48.638222	-43.859730	3.460548
2613.240575	-47.936882	-43.099941	3.694328
2613.243481	-47.878433	-42.983051	2.642311
2613.246820	-47.586205	-41.931034	3.109879
2613.250151	-46.475746	-41.580364	3.694328
2613.253484	-46.066628	-41.054356	3.168320
2613.256816	-45.482170	-41.521915	4.161888
2613.260145	-45.131508	-40.177677	4.454117
2613.263484	-44.663940	-39.827007	5.330795
2613.266818	-44.605492	-39.651661	5.038567
2613.270167	-43.728813	-39.300991	4.804787
2613.273485	-43.728813	-38.774990	4.687897
2613.276816	-42.969025	-38.190533	5.506134
2613.280157	-42.852142	-38.132084	5.330795
2613.283484	-41.800117	-37.606083	4.921677
2613.286808	-42.033897	-37.547634	5.330795
2613.290145	-41.274109	-37.313854	4.980125
2613.293475	-40.689659	-37.489193	4.746346
2613.297668	-40.397430	-36.554066	4.921677
2613.300994	-39.871422	-35.969612	5.389236
2613.304346	-39.637634	-35.618935	5.155457
2613.307243	-39.812973	-35.502041	5.155457
2613.310595	-39.345406	-35.852722	4.921677
2613.313962	-39.520752	-35.677383	5.155457
2613.316806	-38.527176	-34.917591	5.330795
2613.320143	-38.644066	-34.508476	5.739922
2613.323473	-37.592056	-34.625366	5.915253
2613.326815	-37.475159	-34.450027	5.447685
2613.330140	-37.650505	-33.924023	6.032143
2613.333478	-37.182938	-34.333138	5.272346
2613.336808	-37.592056	-34.274693	5.213905
2613.340145	-36.832260	-34.099354	5.623024
2613.343474	-37.299820	-34.274693	5.389236
2613.346803	-37.182938	-33.748684	5.097015
2613.350139	-37.241379	-33.456459	5.330795
2613.353477	-36.715378	-33.398010	6.032143
2613.356845	-36.247810	-33.690239	5.564583
2613.360141	-36.540031	-33.164230	6.032143
2613.363474	-36.481598	-33.164230	5.739922
2613.366802	-36.306252	-33.281120	6.499702
2613.371014	-36.306252	-33.339569	5.330795
2613.374412	-36.364700	-33.222679	5.389236
2613.377734	-36.773811	-32.638226	5.856812
2613.380631	-36.598480	-32.872005	6.265923
2613.383892	-37.066040	-33.105785	6.324371
2613.387229	-36.890709	-33.281120	5.856812
2613.390132	-36.773811	-33.281120	5.330795
2613.393467	-36.773811	-32.930447	5.798363
2613.396803	-36.773811	-32.813557	5.681473
2613.400135	-36.832260	-32.579777	5.915253
2613.403466	-37.416718	-33.514900	5.097015
2613.406811	-37.066040	-33.164230	5.330795
2613.410134	-37.182938	-33.514900	5.681473
2613.413469	-37.767387	-34.040913	4.980125
2613.416801	-37.533607	-34.157803	5.272346
2613.420139	-37.942719	-34.099354	4.571007
2613.423465	-37.884285	-34.742256	5.213905
2613.426800	-37.942719	-34.683807	5.213905
2613.430134	-37.942719	-34.450027	5.447685
2613.433464	-38.176498	-33.982464	5.097015
2613.436795	-38.118065	-34.625366	5.798363
2613.440136	-37.942719	-34.859146	4.571007
2613.444403	-38.585625	-34.566917	4.395676
2613.447640	-38.527176	-35.209820	5.038567
2613.450587	-38.760963	-35.735828	4.687897
2613.453894	-38.702515	-35.034481	4.395676
2613.457225	-39.462303	-35.677383	4.161888
2613.460545	-39.637634	-35.852722	4.512566
2613.463468	-39.929871	-35.852722	4.454117
2613.466794	-39.462303	-36.554066	4.220337
2613.470123	-40.280533	-37.138515	4.278778
2613.473460	-40.689659	-36.846287	3.869659
2613.476790	-40.806541	-37.138515	4.220337
2613.480127	-40.748093	-37.196957	4.161888
2613.483462	-41.449448	-37.372303	4.161888
2613.486815	-42.209229	-38.015194	4.044998
2613.490125	-42.735245	-38.716541	3.635880
2613.493455	-42.969025	-38.891880	3.460548
2613.496805	-43.319702	-39.067211	3.694328
2613.500128	-43.436584	-39.067211	3.752769
2613.503461	-43.728813	-39.710110	3.051430
2613.506795	-44.663940	-40.060787	3.109879
2613.510122	-45.482170	-40.469898	2.700752
2613.514756	-45.599068	-41.171246	3.577438
2613.517672	-46.475746	-42.223263	1.531845
2613.520998	-47.293983	-42.457043	2.350082
2613.523903	-48.229111	-43.041492	1.707184
2613.527240	-48.696671	-43.684399	2.057861
2613.530612	-49.456451	-44.210400	1.999413
2613.533452	-50.508476	-44.327290	1.824081
2613.536800	-50.742256	-44.911747	1.590294
2613.540123	-51.911163	-45.846874	1.005844
2613.543452	-53.021622	-46.255993	-0.396843
2613.546784	-52.963188	-47.015781	-0.046173
2613.550122	-54.599655	-47.308010	0.129158
2613.553453	-55.067215	-48.535358	-0.104622
2613.556786	-55.710114	-49.119816	-0.572182
2613.560123	-56.762123	-49.587376	-1.098190
2613.563449	-57.580360	-50.464054	-1.741089
2613.566785	-58.866158	-51.399181	-1.624199
2613.570119	-59.918182	-52.275860	-2.325546
2613.573474	-60.794861	-53.035648	-1.682640
2613.576779	-61.437759	-54.496784	-2.793106
2613.580127	-62.548218	-54.905903	-3.143776
2613.583450	-63.191116	-55.431911	-3.552895
2613.587695	-65.704269	-57.711285	-4.897141
2613.591041	-66.639389	-58.704853	-6.124493
2613.594380	-68.042068	-59.756863	-5.890713
2613.597206	-69.386322	-60.750439	-6.241383
2613.600535	-70.555237	-62.270016	-7.176510
2613.603880	-72.133255	-62.912914	-8.228527
2613.606776	-73.185272	-64.490936	-9.046761
2613.610112	-74.354187	-64.900055	-9.923439
2613.613445	-75.581528	-66.770309	-10.683231
2613.616816	-77.101105	-67.705444	-10.917011
2613.620110	-78.737579	-69.283463	-11.910580
2613.623445	-80.023392	-70.803040	-13.196381
2613.626778	-81.952072	-72.088837	-13.722385
2613.630104	-83.763885	-74.075974	-16.177090
2613.633440	-85.341904	-74.835770	-17.346001
2613.636776	-86.744598	-76.881348	-17.579781
2613.640109	-89.257736	-78.342484	-19.040916
2613.643441	-91.303329	-79.452942	-19.040916
2613.646780	-92.998245	-81.849213	-20.735828
2613.650105	-94.926941	-83.777908	-21.612511
