time (s)	magX	magY	magZ
3837.103170	87.842201	272.320862	742.303894
3837.106070	87.491531	287.633545	720.270020
3837.109403	87.316193	301.835785	698.995911
3837.112738	86.614845	314.635284	676.436035
3837.115645	85.971947	326.324371	653.759216
3837.118977	85.095268	336.844543	634.121582
3837.122317	84.744598	346.195801	611.094116
3837.125641	84.393921	353.618347	589.761536
3837.128977	82.932793	361.040894	567.961426
3837.132309	81.997665	366.943878	546.921143
3837.135668	80.887207	370.801270	525.997620
3837.138974	79.309181	374.541779	505.424866
3837.142311	77.906494	378.165405	485.670410
3837.145643	76.036240	379.977203	465.915833
3837.148980	74.691994	381.087646	445.985992
3837.152308	73.172417	381.029236	428.101685
3837.155639	72.237289	380.795441	410.684967
3837.159034	70.074814	379.684967	391.456482
3837.162306	68.204559	378.282288	374.624207
3837.165640	66.860321	375.769135	358.142639
3837.169814	63.061371	369.924622	327.049683
3837.173156	61.600235	366.593201	312.146118
3837.176489	59.613094	362.911163	297.300995
3837.179431	58.444187	358.410889	283.683228
3837.182726	55.521919	354.085907	269.890137
3837.186078	54.411457	349.527161	257.791931
3837.188968	52.482761	343.857971	244.407959
3837.192303	51.255409	338.305664	231.783752
3837.195637	49.385159	332.402679	220.445343
3837.198963	47.690243	327.317963	208.814728
3837.202308	46.813560	321.181183	198.002350
3837.205632	45.293983	315.511993	187.949738
3837.208970	43.540623	309.141449	178.130920
3837.212305	42.079491	303.647552	168.604340
3837.215632	41.027473	297.160156	159.954407
3837.218965	40.150791	290.906494	150.836914
3837.222313	39.391003	284.886627	142.713013
3837.225632	37.929871	279.158966	134.180023
3837.228969	36.760963	272.846863	127.225014
3837.232302	35.708946	266.827026	120.445351
3837.235626	34.715374	261.040894	112.613670
3837.238960	34.014030	255.021042	105.950905
3837.243165	31.909998	243.215088	93.911156
3837.246563	31.325542	237.838104	88.125069
3837.249909	30.390417	232.227341	82.923439
3837.252825	29.513737	226.675049	78.247795
3837.256067	29.046175	221.648743	72.286385
3837.259388	28.344831	217.206894	68.019875
3837.262295	27.468151	211.771469	64.104027
3837.265642	26.883698	206.920517	60.714195
3837.268964	26.065462	202.127991	56.389236
3837.272298	25.656345	197.861496	52.356506
3837.275625	24.779663	193.945648	49.609581
3837.278960	23.902981	189.971359	45.810631
3837.282295	23.727646	185.412613	42.011681
3837.285620	22.383404	181.321457	40.141426
3837.288960	22.850967	176.996490	37.043839
3837.292289	21.623615	173.781998	33.946220
3837.295622	20.571598	169.807709	32.017532
3837.298964	20.220924	166.184097	30.264168
3837.302295	19.636475	161.859161	27.108124
3837.305625	19.227356	159.112213	25.705429
3837.308962	18.876682	156.131500	23.542953
3837.312292	18.409122	152.390991	21.205139
3837.316546	17.532440	146.429565	17.523079
3837.319814	17.181770	143.741089	16.003502
3837.323133	16.538872	140.351257	14.016365
3837.326074	16.129753	137.312103	13.022789
3837.329381	14.960842	135.149628	11.444771
3837.332716	14.610172	132.694916	9.983627
3837.335622	14.201054	129.305084	8.580940
3837.338967	14.434834	127.259499	6.827583
3837.342289	13.675045	124.571014	5.950897
3837.345619	13.558155	121.999413	4.548210
3837.348954	13.090591	119.720047	3.729980
3837.352286	13.149036	117.616013	2.151955
3837.355625	13.441265	114.752190	1.450615
3837.358958	12.389248	113.057274	0.398598
3837.362288	12.447693	110.544121	-1.413212
3837.365613	11.980129	108.089417	-1.822334
3837.368983	11.395679	106.102280	-2.640568
3837.372288	11.337231	104.348923	-3.692585
3837.375614	10.869671	101.894211	-4.919933
3837.378952	11.103451	100.082405	-4.919933
3837.382306	10.460552	98.738167	-6.030396
3837.385614	10.402107	96.400345	-6.381069
3837.389804	9.759209	93.127411	-7.959091
3837.393157	9.992989	92.250732	-8.601990
3837.396485	9.700764	90.146698	-7.725307
3837.399412	9.466980	89.036240	-8.309761
3837.402730	9.350090	87.224426	-8.660435
3837.406064	9.057865	86.289307	-8.777325
3837.408947	8.648746	84.711281	-10.063129
3837.412320	8.882526	84.068382	-9.946236
3837.415617	8.648746	83.191696	-10.530689
3837.418946	7.888958	81.496780	-10.589134
3837.422276	7.947403	80.795441	-10.764473
3837.425625	7.479839	79.860313	-11.582706
3837.428947	7.830513	78.399185	-11.582706
3837.432275	7.596729	77.697838	-12.050270
3837.435613	7.304504	76.353592	-12.050270
3837.438941	7.596729	76.412041	-12.050270
3837.442279	7.830513	75.067795	-12.342491
3837.445614	6.720051	74.892464	-13.336067
3837.448941	7.187614	74.074226	-13.219177
3837.452275	6.895386	72.846870	-12.693165
3837.455626	7.304504	71.970192	-13.043839
3837.458940	6.836941	71.151955	-12.634724
3837.463196	6.369377	69.866158	-13.102283
3837.466549	6.194042	69.047928	-13.569847
3837.469824	6.194042	68.229691	-13.336067
3837.472691	5.784924	67.995911	-13.862072
3837.476037	5.960262	67.353012	-13.862072
3837.479370	5.668034	66.242546	-13.628288
3837.482273	5.726479	65.716537	-14.154301
3837.485605	5.375809	64.547630	-13.978962
3837.488940	5.317360	64.372299	-13.920521
3837.492270	5.492699	63.963181	-15.030983
3837.495604	5.551140	63.670952	-14.680309
3837.498960	5.200470	62.794273	-14.329636
3837.502275	5.375809	62.502045	-14.738754
3837.505603	5.492699	62.034481	-15.089428
3837.508933	5.317360	61.566917	-15.673882
3837.512268	5.434250	61.216248	-15.206318
3837.515602	5.258919	60.222679	-14.797199
3837.518938	5.668034	59.579781	-15.147873
3837.522276	5.434250	59.638222	-15.030983
3837.525605	5.258919	59.521332	-15.264763
3837.528931	5.609589	58.878433	-15.907661
3837.532270	5.492699	58.819988	-15.615433
3837.536481	5.375809	57.884861	-15.323208
3837.539788	5.258919	58.469315	-15.440098
3837.543153	4.557575	58.586205	-15.966106
3837.546030	4.206902	58.001751	-15.147873
3837.549390	4.440681	57.358852	-15.206318
3837.552743	5.317360	57.651081	-14.680309
3837.555599	4.674465	57.709526	-15.089428
3837.558934	4.908245	57.534187	-15.673882
3837.562301	4.616016	57.475746	-15.732327
3837.565601	4.908245	57.592636	-15.264763
3837.568928	4.616016	57.241962	-15.615433
3837.572263	4.791355	57.300407	-15.790771
3837.575601	4.732906	57.300407	-16.141441
3837.578963	4.908245	56.832848	-15.381653
3837.582268	4.674465	57.300407	-15.849216
3837.585601	4.382236	57.358852	-15.498543
3837.588926	4.908245	57.358852	-15.206318
3837.592264	4.031563	57.358852	-15.790771
3837.595588	4.791355	57.826416	-15.790771
3837.598929	4.732906	57.767971	-15.966106
3837.602261	4.265343	57.475746	-15.440098
3837.605597	4.440681	57.709526	-16.024551
3837.609801	4.031563	58.293980	-15.849216
3837.613233	4.557575	58.527760	-15.440098
3837.616521	4.148453	58.293980	-15.673882
3837.619414	4.499126	58.293980	-15.556988
3837.622690	4.732906	58.469315	-15.556988
3837.626024	4.557575	58.936878	-15.615433
3837.628947	4.791355	59.287552	-16.199886
3837.632259	4.674465	58.819988	-15.147873
3837.635595	4.323792	59.404442	-15.440098
3837.638928	4.323792	59.170662	-15.206318
3837.642265	4.031563	59.521332	-15.440098
3837.645585	4.791355	60.105785	-15.966106
3837.648923	4.732906	60.047340	-15.323208
3837.652255	4.557575	60.865578	-15.440098
3837.655593	4.674465	60.748684	-14.914089
3837.658917	4.791355	61.566917	-15.089428
3837.662258	4.031563	62.151375	-15.381653
3837.665586	4.031563	62.268265	-15.147873
3837.668918	4.499126	62.560490	-14.738754
3837.672273	3.856228	63.320282	-14.388084
3837.675589	3.856228	63.320282	-14.388084
3837.678919	4.031563	64.606079	-14.738754
3837.683198	4.440681	64.606079	-14.271191
3837.686441	4.206902	65.658096	-13.569847
3837.689758	4.791355	66.476326	-14.154301
3837.692675	5.375809	66.943893	-14.095856
3837.696009	4.674465	67.762131	-13.336067
3837.699337	4.440681	68.521919	-13.394508
3837.702251	4.206902	69.281708	-13.219177
3837.705583	4.206902	70.567505	-13.043839
3837.708942	4.499126	70.509056	-13.102283
3837.712248	4.440681	71.561073	-12.517830
3837.715584	4.206902	72.437752	-11.816486
3837.718918	3.973122	72.963760	-11.407368
3837.722266	4.382236	74.132668	-11.641148
3837.725586	4.616016	74.892464	-12.751614
3837.728916	4.148453	76.061371	-11.699596
3837.732250	4.323792	77.288719	-11.173588
3837.735580	4.265343	78.165405	-11.232033
3837.738915	4.031563	79.217415	-10.238461
3837.742245	4.499126	80.035652	-10.881363
3837.745582	4.849796	80.503212	-10.647583
3837.748914	4.323792	82.081238	-9.478676
3837.752279	3.797783	83.074814	-10.472240
3837.756459	4.791355	85.120399	-9.069553
3837.759798	5.200470	86.230858	-9.244888
3837.763176	4.732906	87.691994	-8.894215
3837.766034	5.200470	88.568672	-8.485100
3837.769362	4.908245	90.088257	-7.491528
3837.772708	4.849796	91.198715	-7.725307
3837.775572	4.849796	93.127411	-7.140854
3837.778911	4.557575	94.296310	-6.322620
3837.782245	5.317360	95.815895	-5.562836
3837.785572	5.258919	96.926361	-5.270603
3837.788914	5.726479	98.738167	-3.926365
3837.792244	5.258919	100.783752	-3.692585
3837.795611	5.609589	102.361778	-3.166573
3837.798907	5.492699	104.290466	-2.640568
3837.802245	5.492699	106.452950	-1.822334
3837.805573	5.609589	108.440094	-0.887207
3837.808908	5.258919	110.544121	0.164818
3837.812239	6.018703	112.531265	0.515488
3837.815569	5.492699	114.985970	1.625946
3837.818902	5.901814	116.388664	3.379303
3837.822235	5.726479	119.486267	4.314430
3837.825574	5.317360	122.233200	4.723549
3837.828906	5.726479	123.986557	6.418465
3837.833175	5.551140	129.246643	8.171822
3837.836436	4.966686	132.402679	10.100525
3837.839374	5.200470	134.857391	11.094093
3837.842662	5.200470	137.721222	13.022789
3837.846006	4.849796	141.461716	14.483925
3837.849336	5.200470	144.091766	15.652832
3837.852234	4.966686	147.306244	17.873756
3837.855567	4.908245	150.286972	19.510223
3837.858899	4.849796	154.144348	20.796021
3837.862229	4.849796	157.417297	22.841614
3837.865566	5.142025	160.222672	25.296318
3837.868904	4.265343	164.606079	27.458794
3837.872230	4.616016	168.112793	29.387489
3837.875567	4.732906	172.262421	32.192863
3837.878898	3.739338	175.593796	34.530678
3837.882259	4.031563	179.042068	36.868492
3837.885591	3.447109	183.016373	39.907646
3837.888902	3.388668	186.815308	42.596138
3837.892235	3.388668	191.081818	45.050835
3837.895569	3.330219	195.815887	49.083565
3837.898898	3.622448	200.433090	52.824074
3837.902233	2.862656	204.758026	56.506134
3837.906436	3.096436	213.817062	63.461128
3837.909782	2.921104	218.317368	68.604317
3837.913112	2.336651	224.278778	73.046181
3837.915984	1.985973	229.246643	77.838692
3837.919354	1.869083	233.805374	82.631203
3837.922687	1.752193	239.240799	87.715950
3837.925578	0.992405	244.851532	94.554054
3837.928917	0.817066	249.585632	100.106377
3837.932228	0.466393	255.371704	105.541786
3837.935560	0.407951	260.690247	111.970772
3837.938896	-0.234951	266.417877	119.568672
3837.942228	-1.170074	272.262421	126.582115
3837.945561	-1.579189	278.165405	133.653992
3837.948899	-2.397423	283.425476	142.187012
3837.952230	-2.572762	289.211578	151.070709
3837.955568	-3.215660	294.822327	160.071289
3837.958891	-4.910576	300.783752	168.312103
3837.962227	-5.728809	306.920532	178.832245
3837.965554	-6.313263	313.407928	189.352417
3837.968893	-8.183514	319.018707	199.580383
3837.972221	-8.709530	324.337219	211.795441
3837.975579	-10.170658	330.240204	238.504974
3837.979761	-12.566921	340.877258	248.265350
3837.983144	-14.495609	346.312683	261.707764
3837.986490	-16.015186	350.403870	275.734680
3837.989339	-17.593220	355.780823	289.527771
3837.992644	-19.346577	359.579773	305.249573
3837.995982	-21.450611	363.729401	320.503784
3837.998886	-22.444180	367.762146	335.699585
3838.002223	-25.249561	370.450623	352.648743
3838.005554	-27.061367	372.846863	369.422546
3838.008892	-29.340733	374.775574	386.430176
3838.012218	-31.386326	376.295166	403.203979
3838.015552	-33.724133	377.522491	422.315613
3838.018917	-36.120396	378.048523	440.024536
3838.022224	-38.399761	377.580963	458.259521
3838.025557	-40.562244	376.295166	478.364746
3838.028882	-43.893627	374.366455	498.177673
3838.032215	-45.822330	371.561066	517.406189
3838.035547	-48.569256	368.112793	537.862061
3838.038886	-51.959080	363.144958	558.551758
3838.042214	-54.647572	357.417297	578.715393
3838.045551	-57.160717	350.228516	599.580322
3838.048887	-60.024540	342.396851	619.802429
3838.053137	-66.511978	323.460541	661.532471
3838.056441	-69.200455	312.063721	682.105225
3838.059729	-73.291641	299.673279	703.145508
3838.062650	-75.921677	285.471069	724.185852
3838.065971	-79.486832	270.976624	744.758667
3838.069310	-82.935120	254.261246	764.454712
3838.072207	-85.565170	237.312103	782.923462
3838.075554	-89.539444	218.843369	801.333740
3838.078879	-92.461700	198.562836	819.919373
3838.082218	-96.494446	177.990067	836.868530
3838.085544	-99.358261	155.780823	852.531860
3838.088875	-103.040314	133.279358	868.019836
3838.092265	-106.488602	110.076561	881.170044
3838.095550	-110.112198	85.821747	893.151367
3838.098916	-112.742249	61.157803	903.204041
3838.102205	-115.313843	35.091175	912.379883
3838.105544	-118.119217	10.251896	918.808899
3838.108880	-120.690811	-14.528934	924.127441
3838.112214	-123.729965	-40.595558	927.400391
3838.115545	-126.067795	-65.493279	929.387512
3838.118879	-127.996490	-90.215668	927.751038
3838.122214	-129.925186	-113.827591	926.582092
3838.126413	-132.379898	-160.057861	916.704834
3838.129749	-133.841019	-181.916428	909.223816
3838.133136	-134.016357	-202.722977	899.931030
3838.135992	-134.893036	-223.120392	888.475769
3838.139334	-134.776154	-241.998260	875.734680
3838.142671	-134.542374	-260.466980	860.772644
3838.145538	-133.841019	-276.422546	847.096436
3838.148904	-133.665680	-292.085907	831.140869
3838.152201	-132.087662	-306.697266	813.724121
3838.155542	-131.035645	-320.431915	796.073669
3838.158876	-129.925186	-332.121002	778.890686
3838.162220	-128.756271	-342.758026	758.434814
3838.165540	-126.827576	-352.693756	738.154297
3838.168872	-124.898880	-361.402100	716.237244
3838.172209	-122.093506	-369.701355	695.196960
3838.175541	-120.223251	-375.954987	674.331970
3838.178870	-117.826996	-381.624207	652.122742
3838.182205	-115.138504	-385.598511	630.439514
3838.185536	-113.034485	-389.514343	608.580933
3838.188866	-110.170654	-392.904175	587.014648
3838.192224	-107.657501	-394.306824	564.805359
3838.195531	-104.969009	-394.306824	544.057312
3838.199788	-99.825821	-395.651093	499.814148
3838.203156	-96.728226	-393.839294	479.066040
3838.206409	-93.922852	-391.735260	457.967285
3838.209283	-91.526581	-390.040344	437.920532
3838.212626	-88.954987	-386.884277	418.750427
3838.215967	-86.149612	-383.436005	398.411469
3838.218866	-84.104034	-379.578613	379.475159
3838.222197	-81.298645	-376.130310	360.831085
3838.225529	-78.727051	-370.285767	343.472839
3838.228861	-76.272354	-365.843933	326.056122
3838.232201	-73.642303	-360.291656	309.925171
3838.235557	-71.070709	-354.447113	294.846283
3838.238865	-68.557571	-348.310364	279.007599
3838.242195	-66.511978	-342.874939	264.454712
3838.245529	-64.466385	-336.562836	250.544739
3838.248865	-61.894794	-329.783142	237.745178
3838.252193	-59.907658	-324.113953	225.354767
3838.255529	-57.862064	-317.509644	213.724152
3838.258860	-55.874928	-311.139099	201.509064
3838.262201	-53.361782	-304.067200	190.696686
3838.265530	-51.608418	-297.988892	181.053192
3838.268863	-50.322613	-291.559906	172.286377
3838.273488	-47.341900	-279.169495	153.642303
3838.276380	-44.711857	-273.266510	145.343079
3838.279775	-43.542950	-267.246643	137.862061
3838.282629	-42.374043	-261.519012	131.257751
3838.285943	-40.854465	-255.148468	124.478081
3838.289302	-38.984219	-249.654572	117.873756
3838.292640	-37.756870	-243.517822	111.444756
3838.295522	-36.412624	-238.725311	105.717125
3838.298860	-35.477497	-233.932770	100.515480
3838.302196	-34.659260	-228.263611	94.670952
3838.305526	-32.847454	-223.763306	90.287544
3838.308855	-32.262997	-218.853882	84.969017
3838.312189	-31.210979	-214.353577	79.884270
3838.315523	-29.925182	-208.976624	76.143761
3838.318856	-28.990063	-204.300995	72.227928
3838.322207	-27.821156	-200.209808	67.727638
3838.325529	-26.769138	-196.469315	63.402687
3838.328851	-26.360020	-191.852142	59.779076
3838.332192	-25.132671	-187.936279	55.980125
3838.335520	-24.314434	-183.435989	52.940964
3838.338852	-23.437748	-179.111053	49.492699
3838.342190	-22.794857	-175.195190	46.745758
3838.346398	-20.924603	-167.831085	41.310333
3838.349845	-20.047924	-164.207489	38.388077
3838.353119	-19.814137	-160.174759	35.465805
3838.356372	-18.995907	-157.135590	33.420219
3838.359317	-18.879017	-152.927536	30.965515
3838.362616	-18.060780	-149.888382	28.043251
3838.365523	-18.002338	-146.556992	25.471649
3838.368857	-17.184101	-143.693161	23.835175
3838.372182	-16.716541	-140.478668	22.724716
3838.375514	-16.132084	-137.614853	20.328461
3838.378851	-15.606075	-134.809479	18.399765
3838.382179	-15.489185	-132.004089	16.821739
3838.385517	-15.606075	-129.081818	15.477493
3838.388853	-14.787838	-126.627121	13.841026
3838.392183	-14.261829	-123.763306	12.263000
3838.395511	-13.852718	-121.133255	11.269432
3838.398846	-13.794270	-118.503220	9.165398
3838.402202	-13.443592	-115.931625	8.697830
3838.405558	-13.268261	-114.178253	7.353584
3838.408854	-12.859142	-112.249573	6.360023
3838.412177	-12.976032	-110.729980	5.950897
3838.415511	-12.040905	-108.976624	4.548210
3838.420135	-11.573345	-105.119232	3.203972
3838.423026	-11.281124	-103.248978	2.911743
3838.426407	-10.871998	-101.320282	2.268845
3838.429715	-10.404438	-99.566910	1.918175
3838.432636	-10.696667	-98.105789	1.158379
3838.435954	-11.047337	-96.527756	0.340149
3838.438844	-9.878429	-95.417297	0.223259
3838.442187	-9.878429	-93.722382	-1.004097
3838.445542	-9.469311	-92.436584	-1.179432
3838.448841	-9.469311	-91.150787	-1.354771
3838.452180	-9.118641	-89.864990	-2.114555
3838.455513	-9.060200	-88.988312	-3.867916
3838.458840	-8.475742	-87.585617	-2.757458
3838.462173	-8.943310	-86.007599	-4.101696
3838.465510	-9.001751	-85.014023	-4.919933
3838.468843	-9.235531	-83.728233	-4.335480
3838.472177	-8.709530	-83.026886	-5.036823
3838.475507	-8.417294	-81.390419	-5.621277
3838.478842	-8.008183	-80.689072	-5.971947
3838.482177	-8.358852	-79.695503	-6.205730
3838.485504	-8.066624	-78.351265	-7.257744
3838.488838	-7.949734	-77.357689	-5.913506
3838.493094	-7.540623	-74.902977	-7.433086
3838.496458	-7.832844	-73.967850	-7.549976
3838.499781	-7.540623	-72.974281	-7.725307
3838.502597	-7.540623	-72.623611	-7.900646
3838.505933	-7.365280	-71.337807	-8.601990
3838.509276	-7.774403	-70.227348	-9.069553
3838.512172	-7.189949	-69.876686	-9.420227
3838.515497	-7.014610	-69.292229	-9.186443
3838.518842	-7.248390	-69.116890	-9.478676
3838.522164	-7.423725	-67.889542	-9.420227
3838.525496	-7.423725	-66.545296	-9.770897
3838.528836	-6.839268	-66.486847	-9.186443
3838.532165	-6.897717	-65.727058	-10.296909
3838.535502	-6.780827	-65.201050	-9.887787
3838.538849	-6.254818	-64.558151	-10.706024
3838.542167	-6.663937	-64.499702	-10.413799
3838.545499	-6.371708	-63.506142	-11.056694
3838.548829	-6.488598	-63.798355	-10.238461
3838.552168	-6.897717	-62.863235	-10.589134
3838.555504	-6.605488	-62.746346	-10.822914
3838.558865	-6.137924	-62.337234	-10.764473
3838.562168	-5.845703	-62.045006	-11.524258
3838.566760	-6.547047	-61.402107	-10.472240
3838.569715	-5.904144	-61.109879	-10.706024
3838.573034	-5.728809	-61.518997	-10.472240
3838.575965	-5.670364	-60.583870	-10.822914
3838.579250	-5.787254	-60.700768	-10.296909
3838.582615	-6.137924	-60.057861	-11.232033
3838.585501	-5.845703	-59.882523	-10.822914
3838.588827	-5.787254	-59.940971	-10.413799
3838.592163	-5.553471	-59.707191	-9.887787
3838.595541	-5.962593	-59.298080	-10.647583
3838.598834	-5.962593	-59.765640	-10.589134
3838.602164	-5.787254	-59.064293	-10.472240
3838.605499	-6.021034	-58.772064	-11.348927
3838.608831	-6.021034	-58.830513	-11.524258
3838.612156	-5.553471	-58.830513	-11.699596
3838.615493	-5.845703	-59.064293	-11.407368
3838.618864	-5.787254	-58.713615	-11.173588
3838.622167	-5.436581	-58.304504	-10.647583
3838.625497	-5.436581	-58.713615	-11.056694
3838.628827	-5.378139	-58.655167	-11.582706
