time (s)	magX	magY	magZ
1789.333478	170.239624	80.862656	-53.757454
1789.336737	164.921097	77.589706	-49.257164
1789.340070	158.842773	74.959671	-45.165985
1789.342967	153.524261	73.147865	-41.367039
1789.346313	148.556396	70.050262	-37.334312
1789.349641	143.588547	67.654007	-34.178261
1789.352584	138.328461	66.075974	-31.898891
1789.355882	134.003510	64.673294	-27.924610
1789.359213	129.152542	61.634132	-25.236122
1789.362550	125.002922	59.822327	-22.898308
1789.365877	120.561073	57.601402	-20.502048
1789.369208	116.119232	56.198715	-17.638229
1789.372545	112.670952	54.620689	-16.469322
1789.375873	108.696671	52.867329	-13.839279
1789.379213	105.482178	50.880188	-12.085918
1789.382546	101.975449	49.828171	-10.507889
1789.385875	98.351837	48.074810	-8.637642
1789.389212	94.962006	46.789013	-7.176510
1789.392548	91.981293	45.210987	-6.299828
1789.395914	88.591461	43.516071	-5.832264
1789.399203	85.610756	41.938049	-3.552895
1789.402547	82.220924	40.652252	-3.202225
1789.406725	77.253067	38.314438	-0.981300
1789.410076	74.564583	37.379311	-0.163063
1789.413416	72.635887	36.210403	0.304497
1789.416328	70.239624	35.099941	2.116302
1789.419654	67.726479	33.814144	1.940971
1789.422989	64.862656	32.937462	2.525421
1789.425882	62.933956	32.060783	3.694328
1789.429204	61.005260	30.716539	3.869659
1789.432535	59.544125	29.664524	5.330795
1789.435874	56.972530	28.729399	5.389236
1789.439227	55.394505	27.326710	6.499702
1789.442540	53.816483	26.683811	6.265923
1789.445873	51.712448	25.865576	6.675041
1789.449207	50.309761	25.339567	7.025719
1789.452541	48.848625	24.521332	7.551720
1789.455875	47.562828	23.527761	7.843948
1789.459206	45.809467	23.060200	7.610168
1789.462532	44.348335	22.183517	7.201050
1789.465867	43.354763	21.189947	7.610168
1789.469209	42.068962	20.254822	7.551720
1789.472531	41.192284	20.254822	7.843948
1789.475871	39.672707	19.845703	7.727058
1789.480138	37.685562	18.501461	8.194626
1789.483523	36.691994	18.501461	8.486847
1789.486332	35.990646	17.800117	8.369957
1789.489656	34.880184	17.157219	8.077728
1789.492965	34.237286	17.215664	8.253067
1789.496290	33.945061	16.748100	7.843948
1789.499196	33.477497	16.163647	7.668610
1789.502535	32.250145	16.222092	7.785500
1789.505870	32.016365	15.988311	8.253067
1789.509197	31.022793	15.345411	8.077728
1789.512534	30.321449	15.871420	7.843948
1789.515864	29.269432	15.286966	8.486847
1789.519197	28.801872	15.053185	7.785500
1789.522534	28.568089	14.410286	8.077728
1789.525862	27.282288	13.767387	8.019287
1789.529197	26.990063	13.767387	7.317940
1789.532543	26.522499	13.358271	7.317940
1789.535865	25.821156	13.066044	7.084160
1789.539200	25.704266	13.299825	7.376389
1789.542528	25.119812	12.481590	8.194626
1789.545902	24.652248	13.066044	8.369957
1789.550466	23.775570	12.189363	7.843948
1789.553377	23.015778	12.014026	8.662186
1789.556717	22.314434	11.195791	8.895966
1789.560055	21.671535	11.955582	7.493279
1789.562950	21.846874	10.962009	8.603737
1789.566306	21.496201	11.020454	8.194626
1789.569193	20.736412	11.020454	7.960838
1789.572518	20.151958	10.494448	8.253067
1789.575864	20.035069	10.026884	8.486847
1789.579229	19.275276	10.494448	7.201050
1789.582529	19.216831	9.793104	8.779076
1789.585859	18.983051	9.500877	8.311516
1789.589191	18.807716	9.909994	8.779076
1789.592526	18.106373	9.325541	8.019287
1789.595857	18.106373	9.383986	8.837517
1789.599187	18.457043	8.974869	7.960838
1789.602519	17.580360	9.267096	7.960838
1789.605854	17.580360	8.974869	7.551720
1789.609189	17.112797	8.741087	8.253067
1789.612554	16.995907	8.273525	8.019287
1789.615852	16.995907	8.331970	7.376389
1789.619192	16.177673	8.682642	8.603737
1789.623391	16.002338	7.981298	7.025719
1789.626779	15.827000	8.098188	7.727058
1789.630107	16.294563	8.215080	7.317940
1789.632980	15.885448	8.565752	7.551720
1789.636271	16.002338	8.565752	7.902390
1789.639609	16.177673	8.448860	7.317940
1789.642517	15.768559	8.156633	7.259499
1789.645848	14.891876	8.098188	7.084160
1789.649185	15.125656	7.864407	7.317940
1789.652518	15.359436	8.507305	7.376389
1789.655886	14.774982	8.039743	7.259499
1789.659181	14.365871	8.039743	7.434830
1789.662528	15.008766	8.215080	7.025719
1789.665848	14.774982	8.448860	6.850380
1789.669184	14.482761	7.747517	6.967270
1789.672514	14.365871	7.981298	7.376389
1789.675849	14.365871	7.981298	7.317940
1789.679179	14.132088	7.922853	6.967270
1789.682514	14.950325	7.338398	6.733482
1789.685849	14.482761	7.338398	6.733482
1789.689194	14.365871	7.630627	6.967270
1789.692520	14.365871	7.630627	7.025719
1789.696699	13.781418	7.630627	6.967270
1789.700066	14.248978	7.396843	7.259499
1789.703359	14.307423	7.864407	6.967270
1789.706291	14.190529	7.805962	7.785500
1789.709603	13.664520	7.747517	7.084160
1789.712937	13.956749	7.455288	6.967270
1789.715843	14.015198	7.689072	7.376389
1789.719179	13.956749	7.396843	7.551720
1789.722513	13.606079	7.279953	6.967270
1789.725843	14.365871	7.338398	7.259499
1789.729173	14.541203	7.279953	7.434830
1789.732529	14.541203	7.513733	8.019287
1789.735855	13.722969	7.864407	7.960838
1789.739177	14.248978	7.572180	7.960838
1789.742545	14.482761	7.805962	8.428406
1789.745842	14.774982	8.098188	7.785500
1789.749189	14.716541	7.396843	7.376389
1789.752509	14.599651	7.747517	7.960838
1789.755840	15.359436	7.747517	7.843948
1789.759169	15.359436	7.396843	7.960838
1789.762513	14.541203	7.572180	8.136177
1789.765838	15.008766	8.741087	6.967270
1789.770042	15.242546	8.507305	6.967270
1789.773381	15.534775	8.039743	7.084160
1789.776696	15.827000	8.273525	7.785500
1789.779621	16.177673	8.916424	7.317940
1789.782960	16.353012	8.974869	7.493279
1789.785891	16.294563	9.325541	6.675041
1789.789166	16.762127	9.208651	8.077728
1789.792517	16.879017	8.916424	6.733482
1789.795838	17.112797	9.325541	7.610168
1789.799166	17.229687	9.676212	7.376389
1789.802498	16.879017	9.267096	7.960838
1789.805838	17.931030	9.559322	7.493279
1789.809168	17.872589	9.851549	7.727058
1789.812499	17.872589	9.734657	8.253067
1789.815837	18.106373	9.909994	8.428406
1789.819169	17.931030	10.494448	8.428406
1789.822506	18.457043	10.669783	7.960838
1789.825836	18.573933	10.319111	8.545296
1789.829168	19.450615	10.552893	7.960838
1789.832498	19.684395	10.786674	8.194626
1789.835857	19.216831	10.669783	7.843948
1789.840102	19.859730	10.728230	8.603737
1789.843421	20.444183	11.020454	8.194626
1789.846754	20.911747	11.371128	8.077728
1789.849610	21.028637	11.604908	8.019287
1789.852917	21.262421	11.838690	8.019287
1789.856249	21.788425	12.014026	8.136177
1789.859162	22.255989	12.189363	7.727058
1789.862493	22.197544	12.656926	7.843948
1789.865828	23.424896	12.481590	8.603737
1789.869163	23.366451	13.241380	8.779076
1789.872494	23.658676	13.416716	8.895966
1789.875831	24.301575	13.124489	8.720627
1789.879174	24.886028	14.176505	7.960838
1789.882489	25.528927	13.650496	8.603737
1789.885823	25.704266	14.118059	8.019287
1789.889161	26.464054	14.760959	8.837517
1789.892492	26.697834	15.111630	8.311516
1789.895823	27.574520	15.520748	9.305084
1789.899158	28.100525	15.988311	8.895966
1789.902495	29.152542	16.338982	8.486847
1789.905862	29.561661	16.689655	8.662186
1789.909163	30.496784	17.332554	9.129745
1789.913344	32.367035	17.683226	8.428406
1789.916674	33.185272	18.033897	8.779076
1789.919997	34.178841	18.501461	8.662186
1789.922936	34.880184	19.495031	8.486847
1789.926247	36.458210	19.728813	7.493279
1789.929598	37.334892	20.605494	7.610168
1789.932486	37.977791	21.540619	7.960838
1789.935820	39.263588	21.657509	7.727058
1789.939158	40.666275	22.534191	7.902390
1789.942492	41.192284	23.235535	7.201050
1789.945841	42.536530	24.287552	7.376389
1789.949164	43.997662	24.813559	6.850380
1789.952486	44.582115	25.339567	7.142609
1789.955820	46.043251	25.807131	7.201050
1789.959192	47.621273	26.742256	6.324371
1789.962483	49.140854	28.261835	5.506134
1789.965828	50.601986	28.729399	5.739922
1789.969150	51.595558	30.073641	5.097015
1789.972488	53.641144	31.067211	5.506134
1789.975820	54.751606	31.768557	4.804787
1789.979150	56.738747	33.171246	4.629456
1789.982483	58.199883	33.872589	4.103439
1789.986693	61.706604	35.742840	3.226768
1789.990028	63.518410	37.379311	2.759201
1789.993408	65.330215	38.255989	2.233192
1789.996262	67.434250	39.541786	0.655174
1789.999640	70.648743	40.652252	1.356514
1790.002955	72.577438	41.879601	0.421387
1790.005813	74.915253	43.282291	-0.747520
1790.009166	77.311516	44.801872	-2.033318
1790.012488	80.058441	46.029221	-3.377560
1790.015810	82.746933	48.191700	-3.669788
1790.019149	85.552307	50.237289	-4.955585
1790.022484	87.714783	51.698421	-6.241383
1790.025814	91.163063	53.042664	-6.299828
1790.029144	94.845123	55.088253	-8.345417
1790.032480	98.059616	56.900059	-9.806545
1790.035815	101.566330	59.237869	-11.267685
1790.039148	105.540619	61.575687	-12.378143
1790.042482	109.456459	64.205727	-15.475746
1790.045811	113.547630	66.368210	-16.995327
1790.049143	117.580360	68.939804	-20.677383
1790.052493	122.139099	72.037407	-22.839863
1790.055811	126.054932	74.784332	-25.119232
1790.060064	135.873749	81.330215	-31.606667
1790.063328	141.075394	84.544708	-35.288719
1790.066656	146.101685	88.752777	-39.204559
1790.069557	151.595551	92.259506	-43.587963
1790.072903	157.030975	96.292221	-48.205147
1790.076228	162.232605	100.675629	-52.763885
1790.079137	168.310928	104.065460	-57.673294
1790.082473	174.447693	107.630630	-63.810055
1790.085805	180.642914	112.364700	-70.531273
1790.089160	186.721222	116.397430	-77.603157
1790.092475	192.857971	121.073059	-84.382820
1790.095816	198.994751	124.988892	-92.156052
1790.099137	205.832855	130.132095	-100.396851
1790.102466	211.677383	134.983047	-108.111633
1790.105839	218.047928	139.308014	-117.287552
1790.109150	224.827591	144.451202	-126.580368
1790.112468	231.139679	150.061951	-137.392761
1790.115799	237.685562	154.503799	-148.672699
1790.119142	244.056107	159.004089	-160.361786
1790.122468	250.485092	164.322601	-171.758621
1790.125803	256.738739	169.173584	-184.733490
1790.129133	263.284607	174.550552	-199.403275
1790.133326	275.149048	185.129166	-229.093506
1790.136678	280.526001	190.155457	-245.282867
1790.140044	286.195190	194.305084	-263.284058
1790.142927	291.104614	199.740494	-281.519012
1790.146257	295.780273	204.533020	-300.455261
1790.149575	299.696106	209.559311	-320.209808
1790.152502	302.969025	213.533600	-342.535950
1790.155803	305.482178	217.800110	-364.394531
1790.159128	306.884857	221.715958	-388.006409
1790.162468	307.177094	224.755112	-412.495026
1790.165800	307.060181	227.034485	-438.503204
1790.169133	305.014587	229.138519	-463.751587
1790.172464	302.442993	230.248978	-489.642883
1790.175803	297.708923	231.242538	-516.586243
1790.179128	291.455292	231.359436	-543.529541
1790.182467	282.805359	230.950317	-571.700195
1790.185798	273.454102	229.489197	-598.117432
1790.189126	261.940369	226.216232	-624.651733
1790.192467	248.322617	222.592636	-651.419678
1790.195811	232.425491	217.157211	-677.135620
1790.199128	216.060776	211.604904	-701.857910
1790.202464	196.773819	204.533020	-724.827026
1790.206718	153.874939	187.642303	-766.206299
1790.210058	131.198120	177.414368	-783.623047
1790.213413	105.306839	166.134430	-799.227905
1790.216227	79.941551	154.386917	-812.319702
1790.219557	53.173584	140.827576	-822.723022
1790.222884	26.405609	128.144943	-831.139160
1790.225822	-1.472824	113.475159	-836.516113
1790.229124	-29.059029	98.922272	-838.970825
1790.232456	-56.586792	83.784927	-838.853882
1790.235791	-83.179428	68.822906	-836.223877
1790.239140	-109.596725	53.802456	-831.139160
1790.242454	-134.728241	38.372883	-822.430786
1790.245795	-159.918182	22.826416	-811.968994
1790.249123	-182.828766	8.273525	-799.753906
1790.252458	-204.921097	-5.753361	-785.960815
1790.255789	-225.026291	-19.604908	-768.661011
1790.259122	-244.663925	-33.514900	-751.010498
1790.262454	-261.905334	-46.255993	-730.145508
1790.265788	-278.328491	-57.535946	-708.637695
1790.269154	-292.764465	-69.166565	-686.194580
1790.272462	-305.096436	-79.160736	-662.524292
1790.275794	-315.791931	-88.687317	-637.568115
1790.279974	-331.805969	-105.928696	-586.662109
1790.283323	-337.592041	-113.000595	-561.238464
1790.286626	-342.384583	-118.669785	-535.054932
1790.289542	-345.365295	-124.455872	-508.637634
1790.292882	-347.177063	-128.430161	-483.097015
1790.296213	-347.177063	-131.995331	-458.140839
1790.299114	-347.118652	-134.450043	-432.892456
1790.302450	-345.014648	-137.489197	-408.228516
1790.305805	-342.092346	-138.424316	-383.973694
1790.309117	-337.767395	-139.885452	-361.530670
1790.312466	-333.617798	-139.768555	-339.379913
1790.315782	-327.831665	-140.177673	-317.930450
1790.319120	-322.396240	-138.950333	-298.468140
1790.322451	-316.142578	-137.255417	-278.596741
1790.325783	-309.129150	-135.735825	-260.244873
1790.329114	-301.765076	-133.865570	-242.886627
1790.332452	-294.284058	-131.995331	-226.463470
1790.335785	-285.926392	-129.832840	-210.157227
1790.339119	-277.744019	-127.144363	-195.779663
1790.342451	-269.795471	-123.929871	-180.408539
1790.345778	-262.022217	-121.007599	-168.193451
1790.349154	-253.839859	-118.377563	-142.185272
1790.353328	-237.358261	-112.065460	-134.821167
1790.356671	-230.169479	-108.558746	-124.184105
1790.360044	-222.279343	-105.344238	-115.534195
1790.362892	-214.856827	-103.006424	-106.767387
1790.366299	-207.200485	-100.025711	-99.052605
1790.369541	-200.303909	-96.928116	-91.805382
1790.372449	-194.225601	-94.239624	-84.850388
1790.375784	-188.030380	-91.434250	-78.246056
1790.379111	-181.542969	-88.862656	-73.453537
1790.382439	-175.581528	-85.648163	-67.433670
1790.385778	-170.146103	-83.251892	-61.355350
1790.389110	-163.892456	-80.914078	-57.030396
1790.392440	-158.515472	-77.933380	-53.465229
1790.395775	-153.138519	-75.887787	-48.964935
1790.399117	-148.287552	-73.257751	-44.639980
1790.402443	-143.611938	-71.913498	-41.483932
1790.405771	-138.994736	-70.043243	-38.094101
1790.409106	-133.793121	-67.939224	-35.347168
1790.412442	-129.935699	-65.718292	-32.424900
1790.415775	-125.201645	-63.906490	-29.210407
1790.419109	-120.818237	-62.503796	-26.989483
1790.422442	-116.727066	-59.990650	-24.184105
1790.426740	-109.187622	-56.834599	-20.151379
1790.430009	-105.447113	-55.373470	-17.988899
1790.433285	-102.174164	-53.736996	-16.060200
1790.436235	-99.368790	-51.925190	-13.897728
1790.439527	-95.686737	-50.347164	-12.436588
1790.442866	-92.589127	-48.710697	-10.215668
1790.445775	-89.900650	-47.132671	-9.864994
1790.449105	-86.744598	-46.080654	-7.760963
1790.452440	-83.763885	-44.677959	-6.416718
1790.455768	-81.075394	-43.450611	-5.773823
1790.459105	-78.386917	-42.047924	-4.780247
1790.462431	-76.341324	-40.937466	-3.143776
1790.465768	-73.477493	-39.710110	-3.260670
1790.469100	-71.315033	-38.482761	-2.267097
1790.472430	-69.269424	-37.547634	-1.039749
1790.475811	-67.106949	-36.846287	-0.981300
1790.479124	-65.119812	-35.677383	0.596725
1790.482432	-63.308014	-34.333138	0.830505
1790.485770	-62.022202	-33.222679	0.713615
1790.489102	-60.327286	-32.579777	1.940971
1790.492436	-58.749268	-31.527760	2.350082
1790.495769	-56.177673	-30.417301	2.350082
1790.499954	-53.196968	-28.605492	3.577438
1790.503313	-52.086494	-28.137932	3.518990
1790.506637	-50.333145	-27.436588	3.928108
1790.509587	-49.047340	-26.618351	3.285210
1790.512873	-47.936882	-26.443012	3.109879
1790.516214	-46.767975	-25.098774	4.278778
1790.519129	-45.540619	-24.923435	4.863235
1790.522447	-45.248390	-23.988308	4.687897
1790.525767	-43.962601	-23.462303	5.097015
1790.529102	-42.501465	-22.819401	5.330795
1790.532427	-41.566338	-22.702511	4.687897
1790.535760	-41.098770	-22.293396	5.038567
1790.539098	-40.806541	-21.942722	5.155457
1790.542423	-39.520752	-21.942722	4.337227
1790.545759	-38.877846	-21.299824	5.915253
1790.549093	-37.592056	-21.182934	6.207481
1790.552450	-37.066040	-20.189362	5.973701
1790.555760	-36.540031	-20.130917	6.090591
1790.559098	-35.955582	-20.014027	5.798363
1790.562426	-35.195793	-19.780247	5.097015
1790.565760	-34.903564	-19.546463	5.097015
1790.570008	-33.325539	-19.020454	6.149033
1790.573353	-32.156631	-18.377556	6.149033
1790.576689	-31.572182	-18.085331	6.090591
1790.579943	-31.689072	-17.734657	6.207481
1790.582888	-31.221512	-17.383987	6.616592
1790.586181	-29.994156	-16.974869	6.675041
1790.589089	-29.877266	-16.624195	7.084160
1790.592422	-29.292809	-16.273525	5.681473
1790.595772	-28.825249	-16.215080	6.558151
1790.599087	-28.416130	-15.572182	7.025719
1790.602419	-28.123901	-15.572182	6.499702
1790.605759	-26.954994	-15.455292	6.791931
1790.609094	-26.604324	-15.689072	6.499702
1790.612418	-26.954994	-15.163063	6.324371
1790.615751	-26.253654	-14.578609	6.675041
1790.619092	-25.552307	-14.403275	6.090591
1790.622416	-25.260086	-13.877266	6.382812
1790.625751	-24.909416	-14.403275	6.207481
1790.629087	-24.324959	-13.409702	6.558151
1790.632460	-24.617180	-13.351257	6.090591
1790.635758	-24.266510	-13.760376	6.733482
1790.639106	-24.149620	-13.175922	6.149033
1790.643258	-23.623619	-13.175922	6.791931
1790.646594	-23.331383	-12.942142	6.908829
1790.649926	-23.565170	-12.357685	6.791931
1790.652842	-23.272942	-12.474575	6.733482
1790.656180	-22.805382	-12.357685	6.441261
1790.659539	-22.454704	-12.708355	6.265923
1790.662415	-22.805382	-12.649910	6.324371
1790.665747	-23.097603	-12.357685	5.915253
1790.669104	-22.279373	-11.597897	6.382812
1790.672454	-21.285797	-12.065456	6.441261
1790.675751	-21.519577	-12.065456	6.207481
1790.679084	-21.928696	-12.533020	5.330795
1790.682439	-21.344246	-12.299240	5.798363
1790.685746	-21.285797	-11.714787	6.850380
1790.689082	-20.876678	-11.597897	6.382812
1790.692417	-21.578026	-11.890121	7.084160
1790.695745	-21.402687	-12.007011	6.324371
1790.699078	-21.227356	-12.182350	5.856812
1790.702415	-20.467560	-11.364113	6.675041
1790.705746	-20.642899	-11.656342	6.382812
1790.709078	-20.759789	-11.890121	6.558151
1790.712429	-20.759789	-11.773232	7.025719
1790.716613	-20.467560	-10.779659	6.499702
1790.720006	-19.883110	-11.539448	6.675041
1790.723333	-20.409119	-11.597897	6.441261
1790.726216	-20.409119	-11.481003	6.967270
1790.729503	-20.409119	-12.007011	5.798363
1790.732835	-19.707779	-11.539448	6.382812
1790.735743	-19.649330	-12.123901	6.265923
1790.739077	-19.824669	-11.539448	6.967270
1790.742412	-19.532433	-11.130333	6.090591
1790.745745	-19.590881	-11.890121	6.791931
1790.749075	-19.357101	-11.305668	6.324371
1790.752407	-19.473991	-11.948566	6.791931
1790.755735	-19.357101	-10.896549	6.090591
1790.759079	-19.473991	-11.130333	6.382812
1790.762408	-19.649330	-10.779659	6.675041
1790.765736	-19.298653	-11.188778	5.973701
1790.769078	-19.357101	-10.954998	5.915253
1790.772400	-19.357101	-11.188778	6.441261
1790.775743	-19.883110	-11.656342	6.382812
1790.779074	-19.824669	-11.130333	6.090591
1790.782399	-19.532433	-11.422558	6.558151
1790.785739	-19.240211	-12.123901	6.908829
1790.790029	-19.415543	-11.247223	6.733482
1790.793260	-19.590881	-11.422558	6.265923
1790.796586	-19.590881	-11.656342	6.499702
1790.799525	-19.415543	-11.597897	5.915253
1790.802835	-19.707779	-11.773232	6.850380
1790.806159	-20.233780	-12.007011	6.207481
1790.809063	-20.175339	-12.240795	6.265923
1790.812394	-20.526009	-12.591465	6.791931
1790.815730	-20.350670	-12.240795	6.558151
1790.819072	-21.052017	-12.299240	6.616592
1790.822404	-21.402687	-12.299240	6.382812
1790.825728	-21.578026	-13.175922	6.090591
1790.829063	-21.402687	-12.708355	6.382812
1790.832405	-21.694916	-12.708355	6.090591
1790.835759	-21.928696	-13.526592	5.739922
1790.839107	-22.337814	-13.117477	6.733482
1790.842408	-22.454704	-13.175922	6.733482
1790.845730	-22.396263	-13.526592	6.265923
1790.849065	-22.571594	-13.701931	5.623024
1790.852393	-22.922272	-13.877266	5.389236
1790.855727	-23.097603	-14.227940	5.739922
1790.859063	-23.214493	-14.111046	5.681473
1790.863249	-24.208069	-14.344830	5.915253
1790.866607	-24.149620	-14.695499	6.616592
1790.869935	-23.915840	-14.929283	5.856812
1790.872844	-24.441849	-14.929283	6.265923
1790.876181	-24.441849	-15.221508	6.499702
1790.879094	-25.026306	-15.163063	6.382812
