time (s)	magX	magY	magZ
2880.636744	-148.053772	-101.194626	-59.543545
2880.640072	-152.144958	-104.759796	-64.628288
2880.643409	-156.820587	-109.026306	-70.297493
2880.647610	-165.236710	-116.448868	-82.220345
2880.650935	-169.152542	-120.423141	-88.473999
2880.654347	-173.360611	-124.514328	-93.850967
2880.657184	-178.036240	-129.131500	-101.331970
2880.660564	-181.835175	-133.924026	-109.397430
2880.663865	-186.393936	-138.248993	-116.995331
2880.666759	-190.485092	-143.158401	-125.294571
2880.670076	-194.868484	-147.541794	-134.528931
2880.673405	-199.310349	-153.269440	-143.587952
2880.676736	-202.875534	-158.295731	-153.757446
2880.680077	-207.375809	-163.088257	-163.985382
2880.683406	-211.233200	-169.283463	-174.388672
2880.686742	-214.506149	-174.251312	-185.960846
2880.690076	-217.077744	-179.803635	-198.701935
2880.693401	-220.409103	-185.765045	-211.033905
2880.696737	-222.571579	-190.148437	-223.307434
2880.700069	-225.610764	-196.928116	-236.749863
2880.703405	-227.071884	-201.720642	-251.478088
2880.706733	-229.175919	-207.857391	-264.511414
2880.710083	-229.877243	-212.474579	-280.291656
2880.713402	-230.520157	-219.078918	-295.545898
2880.716730	-230.753952	-224.105209	-309.748108
2880.720987	-228.591476	-234.099365	-341.659271
2880.724348	-226.545883	-238.833435	-358.959106
2880.727661	-223.798935	-243.976624	-375.791351
2880.730492	-220.467575	-248.535370	-392.565186
2880.733825	-216.843948	-252.158966	-410.040314
2880.737168	-211.583878	-256.074799	-427.983032
2880.740064	-204.862656	-259.639984	-445.575104
2880.743399	-198.550552	-262.153107	-463.634735
2880.746727	-191.069565	-265.367615	-480.466949
2880.750068	-182.185867	-267.296326	-497.942139
2880.753393	-172.542374	-268.815887	-514.306885
2880.756730	-162.255997	-268.991211	-531.606689
2880.760054	-151.151367	-269.166595	-547.737549
2880.763392	-137.708954	-269.049683	-563.517822
2880.766740	-124.091171	-267.120972	-578.479858
2880.770055	-109.538284	-264.900055	-592.623657
2880.773391	-93.991821	-263.205139	-604.721802
2880.776732	-77.568680	-259.815308	-616.878418
2880.780069	-60.385742	-255.724152	-626.872559
2880.783396	-42.559906	-250.347168	-636.282227
2880.786729	-23.331383	-244.736389	-643.354248
2880.790058	-4.453537	-238.365875	-664.686768
2880.794239	34.821739	-224.981873	-656.387451
2880.797603	54.576271	-217.442429	-656.387451
2880.800937	74.623024	-209.201645	-655.569214
2880.803812	94.494446	-200.610184	-652.004028
2880.807146	113.313850	-191.025131	-648.322021
2880.810510	132.600830	-181.907669	-641.659302
2880.813391	150.601990	-172.381058	-633.944458
2880.816724	168.252472	-163.205154	-625.528320
2880.820056	184.734070	-153.620102	-614.657471
2880.823450	200.572769	-143.567505	-603.552856
2880.826723	214.950317	-135.092926	-589.935181
2880.830063	228.918762	-124.923431	-576.317383
2880.833387	241.133850	-115.689072	-561.706055
2880.836723	253.173584	-106.980713	-545.575073
2880.840049	263.343079	-97.980133	-529.561035
2880.843389	272.109863	-89.797775	-513.313232
2880.846718	280.292236	-80.972534	-496.364136
2880.850050	287.539459	-73.608414	-479.531830
2880.853408	293.383972	-65.776733	-462.290466
2880.856716	297.592041	-58.704853	-445.516663
2880.860047	301.157227	-52.042080	-427.924591
2880.863387	304.547058	-45.320866	-396.188782
2880.867591	307.469299	-33.982464	-377.544708
2880.870994	307.761536	-27.728817	-361.180023
2880.873841	307.878418	-22.936295	-345.341309
2880.877217	307.177094	-18.202221	-330.087097
2880.880469	305.540588	-13.526592	-314.423706
2880.883417	303.378113	-8.967854	-300.221497
2880.886713	300.748108	-5.168907	-285.084167
2880.890052	297.592041	-1.311514	-271.174164
2880.893382	293.734650	1.961426	-258.374634
2880.896722	289.468140	5.585037	-244.523087
2880.900049	285.493835	8.799532	-232.132675
2880.903378	280.876678	11.195791	-219.333145
2880.906714	276.142578	14.118059	-207.819412
2880.910049	270.707184	16.455873	-196.305679
2880.913378	264.804199	18.676796	-184.616608
2880.916713	259.135010	20.137932	-174.797791
2880.920048	253.758041	21.832846	-164.452957
2880.923379	247.504379	23.060200	-155.510818
2880.926724	241.835190	24.462887	-146.627121
2880.930045	235.347748	25.398012	-137.918762
2880.933376	229.503220	26.508474	-129.385742
2880.937645	218.515488	29.196960	-114.832848
2880.940896	213.080078	29.664524	-107.410294
2880.944221	206.767975	30.248978	-101.390419
2880.947132	200.981873	30.424313	-95.195206
2880.950472	195.137344	30.482758	-88.766220
2880.953799	190.227936	30.541204	-83.973701
2880.956706	184.032730	30.658094	-78.713623
2880.960042	179.298645	30.599649	-73.219757
2880.963399	173.746338	30.891876	-68.368790
2880.966710	168.720032	30.015196	-63.517830
2880.970044	164.395081	30.015196	-59.309765
2880.973376	159.427246	29.664524	-55.919933
2880.976708	154.926941	29.606079	-53.173000
2880.980118	150.485107	29.313852	-49.257164
2880.983380	146.861481	28.261835	-46.393341
2880.986710	142.536530	27.969608	-43.763298
2880.990039	138.679138	27.443600	-40.139687
2880.993372	134.997070	26.683811	-38.269436
2880.996708	130.555237	26.040913	-35.697842
2881.000037	127.808296	25.690239	-32.308010
2881.003377	123.834015	25.222677	-30.788429
2881.006741	120.151955	24.696669	-28.742844
2881.010890	114.015198	23.761543	-24.827003
2881.014249	110.742256	23.527761	-22.839863
2881.017603	107.644653	23.001753	-22.080074
2881.020480	104.839279	23.177090	-19.742260
2881.023810	102.267685	22.125072	-18.807133
2881.027149	99.053185	21.949738	-16.936882
2881.030031	96.773819	21.482174	-16.177090
2881.033365	93.559326	21.365284	-13.897728
2881.036697	90.812393	20.956165	-13.488605
2881.040030	88.883698	20.780830	-12.787262
2881.043370	86.136765	20.313267	-11.618355
2881.046704	84.149620	19.904148	-10.800121
2881.050073	81.578026	20.021040	-10.390999
2881.053371	79.123322	18.910580	-8.696087
2881.056701	77.720627	18.326126	-8.170078
2881.060036	76.142609	18.267681	-7.118061
2881.063366	74.097015	18.092344	-6.007603
2881.066695	71.934540	17.390999	-4.488026
2881.070027	70.356514	17.566334	-4.488026
2881.073362	67.551140	16.923435	-4.312687
2881.076700	65.330215	16.923435	-4.312687
2881.080033	64.336647	16.572765	-2.968437
2881.084314	61.063705	16.046757	-2.383987
2881.087651	59.076561	15.929866	-2.150208
2881.090547	58.141438	15.286966	-1.448860
2881.093832	56.504967	14.760959	-1.390419
2881.097122	55.219170	14.293396	-0.338402
2881.100482	53.758034	14.468732	0.187607
2881.103363	52.881355	13.884278	0.479836
2881.106699	51.420219	13.533607	1.122734
2881.110028	50.192871	13.299825	1.122734
2881.113363	49.257744	12.949153	1.473404
2881.116693	48.264175	13.007598	0.888954
2881.120029	46.919930	13.007598	0.888954
2881.123359	46.101692	12.247808	1.707184
2881.126690	44.757454	12.481590	1.239624
2881.130024	43.997662	12.656926	1.181175
2881.133357	43.646988	12.014026	2.233192
2881.136686	42.945644	11.429573	1.824081
2881.140027	42.068962	11.488018	1.239624
2881.143356	40.607830	11.195791	2.174751
2881.146697	40.023376	10.962009	2.817642
2881.150021	39.848042	11.020454	2.525421
2881.153363	39.088253	11.195791	2.233192
2881.157548	38.036236	10.786674	2.233192
2881.160887	37.218002	10.319111	1.648743
2881.164207	36.691994	10.260666	2.116302
2881.167111	36.224426	10.026884	1.999413
2881.170449	35.406193	10.026884	1.882523
2881.173782	34.938629	10.085331	1.999413
2881.176687	34.295731	9.909994	2.057861
2881.180035	33.652832	9.851549	2.817642
2881.183353	32.951488	9.909994	2.642311
2881.186687	32.659264	9.383986	2.466972
2881.190018	31.957920	9.091759	2.233192
2881.193368	31.198128	9.091759	2.291641
2881.196688	31.139683	8.857979	3.343658
2881.200017	30.496784	8.916424	3.402100
2881.203351	30.146114	8.799532	2.876091
2881.206679	29.503216	8.857979	2.174751
2881.210024	29.269432	8.974869	3.226768
2881.213351	28.451199	8.799532	2.700752
2881.216682	28.451199	8.390415	3.051430
2881.220018	28.158970	8.741087	3.694328
2881.223370	27.632965	8.857979	3.694328
2881.227984	26.580944	8.039743	3.343658
2881.230890	26.288719	8.039743	3.343658
2881.234239	26.288719	7.922853	3.635880
2881.237131	25.470482	8.215080	3.752769
2881.240483	25.528927	7.805962	2.876091
2881.243796	25.762711	7.572180	3.460548
2881.247126	25.002922	7.864407	3.460548
2881.250008	24.944477	7.922853	3.928108
2881.253351	24.418468	7.747517	3.518990
2881.256679	24.886028	7.455288	4.512566
2881.260013	24.652248	7.747517	4.161888
2881.263348	24.476913	7.572180	3.869659
2881.266705	24.184685	7.572180	3.928108
2881.270007	24.418468	7.572180	3.635880
2881.273347	24.243130	7.513733	4.571007
2881.276677	24.009350	6.929281	3.869659
2881.280012	23.892460	7.104616	4.161888
2881.283342	23.366451	7.455288	3.402100
2881.286674	23.483341	7.747517	3.928108
2881.290010	23.775570	7.104616	4.044998
2881.293342	23.308006	7.455288	4.395676
2881.296673	23.191116	7.396843	3.577438
2881.300962	23.424896	7.221508	4.337227
2881.304265	23.366451	7.163061	4.337227
2881.307531	22.840443	6.987726	4.278778
2881.310457	23.191116	7.630627	3.752769
2881.313769	23.366451	7.279953	3.869659
2881.317103	23.249561	7.981298	4.220337
2881.320008	22.898888	7.396843	3.694328
2881.323335	22.898888	7.572180	3.460548
2881.326674	22.606663	7.689072	3.460548
2881.330008	22.898888	7.630627	3.635880
2881.333336	23.015778	7.689072	3.694328
2881.336668	22.606663	7.513733	3.694328
2881.340002	22.781998	7.221508	4.044998
2881.343337	22.548218	7.747517	3.694328
2881.346671	22.372879	7.572180	4.161888
2881.350019	22.022209	7.572180	3.869659
2881.353355	22.139099	7.221508	4.220337
2881.356672	22.548218	7.572180	4.629456
2881.360009	22.665108	7.630627	4.395676
2881.363342	23.015778	7.864407	5.038567
2881.366671	22.898888	8.156633	4.746346
2881.370000	23.249561	7.864407	4.395676
2881.374183	22.840443	8.273525	4.278778
2881.377543	23.191116	8.273525	4.161888
2881.380869	23.132671	8.448860	3.928108
2881.383820	23.132671	8.331970	4.395676
2881.387108	23.249561	8.507305	4.161888
2881.390450	23.775570	8.390415	4.220337
2881.393367	24.009350	8.390415	4.395676
2881.396665	24.593803	8.741087	4.103439
2881.399998	24.593803	8.974869	4.044998
2881.403332	24.593803	8.916424	3.869659
2881.406665	24.769138	9.091759	4.687897
2881.409994	24.827583	8.974869	4.161888
2881.413330	25.178257	9.150204	3.811218
2881.416666	25.704266	9.559322	3.168320
2881.419994	25.762711	9.442430	4.103439
2881.423328	26.171829	10.202221	3.869659
2881.426695	26.230274	10.143776	3.402100
2881.429997	26.990063	10.260666	3.635880
2881.433326	26.990063	10.728230	4.103439
2881.436659	27.866745	10.377556	3.635880
2881.439999	27.691410	11.020454	3.986549
2881.443329	27.925190	10.728230	3.752769
2881.447591	28.977207	11.195791	4.395676
2881.450927	29.561661	11.721800	4.337227
2881.454261	29.620106	11.780245	4.337227
2881.457117	30.204559	12.189363	4.161888
2881.460421	30.905903	12.364699	3.752769
2881.463750	31.256573	12.890708	3.752769
2881.466656	31.431911	12.306254	3.635880
2881.470023	31.665691	12.890708	4.103439
2881.473324	32.542374	12.890708	2.876091
2881.476650	32.951488	13.299825	3.285210
2881.479989	33.009933	14.059614	2.876091
2881.483323	33.828171	14.118059	3.518990
2881.486659	34.412621	14.351841	2.466972
2881.489992	34.646404	14.819404	3.168320
2881.493319	35.055523	15.170075	2.934540
2881.496653	35.639973	15.345411	3.109879
2881.500015	36.516655	15.988311	3.168320
2881.503316	37.218002	16.338982	3.869659
2881.506657	37.334892	16.748100	3.285210
2881.509992	37.919346	16.864990	3.051430
2881.513329	39.205143	16.923435	3.869659
2881.516667	40.023376	17.624781	2.057861
2881.520834	41.776737	19.319695	2.817642
2881.524191	42.594971	19.144360	2.408531
2881.527498	43.763878	20.021040	2.583862
2881.530414	44.699005	20.605494	2.116302
2881.533745	45.341904	20.605494	1.882523
2881.537079	46.744591	21.306839	1.940971
2881.539987	47.504379	22.183517	2.174751
2881.543338	48.439507	23.235535	1.181175
2881.546655	49.549973	23.644651	0.421387
2881.549981	51.011101	24.638224	-0.163063
2881.553337	51.829338	25.514904	-0.455292
2881.556669	53.056690	25.807131	-0.630623
2881.559985	54.751606	26.333138	-0.338402
2881.563311	56.446522	27.911163	-1.156639
2881.566653	57.966103	29.021626	-1.390419
2881.569979	59.076561	29.722969	-2.383987
2881.573313	60.829922	30.950321	-2.383987
2881.576648	62.700172	31.710112	-4.020462
2881.579979	64.278198	33.171246	-4.078903
2881.583310	65.797775	34.047924	-4.429577
2881.586671	68.018700	35.509060	-5.832264
2881.589984	69.830505	36.035069	-6.007603
2881.594182	72.811218	38.372883	-7.468735
2881.597515	75.616600	40.184685	-7.176510
2881.600451	77.369957	41.002922	-8.812981
2881.603756	78.480423	42.171829	-9.689655
2881.607127	81.110458	42.931618	-10.917011
2881.610407	82.396255	44.626534	-11.443016
2881.613324	84.967857	46.263004	-12.670372
2881.616640	87.422562	48.308590	-14.189949
2881.619976	88.883698	49.945061	-14.248398
2881.623312	91.279953	50.938633	-15.475746
2881.626646	93.851547	53.334892	-16.761543
2881.630006	96.189362	55.438927	-18.398018
2881.633315	98.468727	57.016949	-19.508476
2881.636639	100.748100	59.179428	-21.086502
2881.639971	104.430161	60.757454	-22.781418
2881.643318	106.592636	62.744595	-24.885448
2881.646642	109.748688	65.199295	-25.937466
2881.649971	113.080070	67.887787	-28.976624
2881.653305	115.710114	69.991821	-30.262424
2881.656637	118.983047	72.680305	-32.834019
2881.659973	121.729980	74.842781	-35.931625
2881.664270	128.977203	81.271774	-41.308594
2881.667568	132.425476	84.018707	-43.938637
2881.670819	135.990646	86.531853	-47.153130
2881.673769	139.731140	89.921677	-50.952080
2881.677072	143.471649	93.486847	-54.926361
2881.680394	147.445938	97.753357	-58.959091
2881.683301	151.654007	100.909409	-63.985390
2881.686646	155.745178	104.942139	-69.479256
2881.689965	160.011688	108.565750	-75.090012
2881.693307	163.752197	112.481598	-80.934540
2881.696639	168.194031	117.215668	-86.194626
2881.699974	172.635895	121.891296	-91.922272
2881.703301	175.850372	125.982468	-98.994156
2881.706634	180.467560	130.248978	-105.890709
2881.709970	184.208069	135.333725	-112.962601
2881.713302	188.123901	139.658676	-120.385155
2881.716652	192.215073	144.801865	-129.794861
2881.719972	195.663361	149.945068	-137.275864
2881.723299	199.170074	154.971359	-146.568680
2881.726635	202.209229	160.465225	-155.627716
2881.729972	205.599075	165.725311	-165.095856
2881.733296	208.404449	170.634720	-174.739334
2881.737478	213.781418	181.330215	-195.662766
2881.740825	215.184097	186.648743	-206.884293
2881.744162	217.463470	192.025711	-218.573349
2881.747053	218.281708	198.279358	-230.788437
2881.750407	219.275269	203.422546	-241.951492
2881.753748	219.625946	209.091751	-254.283463
2881.756626	220.093506	214.702499	-267.784332
2881.759978	219.567505	219.728806	-280.642334
2881.763318	218.924606	225.865570	-293.266510
2881.766629	216.820572	231.008774	-307.118042
2881.769962	214.599640	236.444168	-320.911163
2881.773296	211.969604	240.710693	-334.938049
2881.776623	208.462875	245.561646	-348.497375
2881.779962	204.137939	249.886612	-364.102295
2881.783294	199.696091	253.744019	-378.655182
2881.786621	193.442429	258.244324	-393.441833
2881.789962	185.786102	261.575684	-407.936310
2881.793292	178.246643	265.140869	-422.664520
2881.796626	169.772064	267.186432	-437.626526
2881.799958	160.654587	269.816498	-451.945648
2881.803311	149.959091	270.926941	-465.271179
2881.806619	138.328461	272.037415	-478.830505
2881.810831	113.313850	272.563416	-504.663361
2881.814232	98.936295	271.686737	-516.703125
2881.817578	83.915840	270.284058	-527.106323
2881.820396	68.194038	268.296906	-538.210999
2881.823717	51.186440	265.608429	-547.912903
2881.827053	34.704849	261.926361	-555.510864
2881.829967	17.405025	257.426056	-562.874878
2881.833285	-0.303917	252.984222	-568.894775
2881.836619	-18.597313	246.789001	-573.628906
2881.839960	-36.949158	240.593796	-576.960205
2881.843284	-55.242554	233.755692	-578.772095
2881.846624	-73.360611	226.683807	-578.421387
2881.849956	-90.952652	218.793686	-578.129150
2881.853287	-108.836929	210.026871	-576.317383
2881.856617	-125.786087	200.850952	-572.226196
2881.859952	-142.326111	191.733490	-567.199829
2881.863285	-158.632370	183.142029	-560.946289
2881.866615	-173.360611	173.030960	-553.640564
2881.869956	-188.088852	163.329041	-545.341309
2881.873279	-201.063705	154.211563	-536.223877
2881.876621	-213.746353	143.925186	-526.405029
2881.879951	-225.669205	134.573929	-514.599060
2881.884217	-245.599045	115.812973	-492.039185
2881.887467	-254.599655	106.520157	-478.713623
2881.890406	-262.139099	97.519577	-465.271179
2881.893714	-268.275879	88.811218	-452.471649
2881.897035	-275.230835	80.161308	-438.094086
2881.899949	-279.731140	72.329636	-424.125671
2881.903293	-284.231445	64.790176	-409.338989
2881.906611	-287.153748	57.133839	-395.662781
2881.909943	-290.251343	49.652832	-381.226776
2881.913279	-291.946228	43.340736	-368.018127
2881.916615	-292.881348	37.262421	-352.647003
2881.919948	-293.056702	30.190533	-339.146118
2881.923284	-292.881348	23.761543	-325.703705
2881.926610	-291.420227	17.507889	-312.144379
2881.929943	-290.017517	13.007598	-299.637054
2881.933302	-287.387512	7.981298	-286.136169
2881.936618	-285.049683	3.831678	-273.044434
2881.939942	-281.835205	-0.668615	-260.303345
2881.943278	-278.562256	-4.292229	-248.438934
2881.946619	-274.646423	-8.149620	-236.516083
2881.949942	-271.081238	-11.597897	-224.359436
2881.954121	-261.963745	-17.968441	-202.150208
2881.957477	-256.469910	-20.014027	-191.279373
2881.960817	-252.144943	-22.351841	-181.635895
2881.963693	-246.592636	-24.923435	-171.232605
2881.967060	-242.033920	-26.852135	-162.582703
2881.970401	-235.780228	-28.313271	-152.705444
2881.973269	-230.520157	-29.306839	-144.873749
2881.976670	-224.383408	-30.475742	-136.983643
2881.979944	-218.947983	-31.878433	-129.268860
2881.983270	-213.278793	-32.813557	-121.963181
2881.986602	-208.310928	-33.514900	-115.709534
2881.989949	-202.583298	-34.157803	-109.163651
2881.993269	-197.381638	-34.508476	-102.559326
2881.996606	-192.180008	-34.566917	-96.539452
2881.999939	-186.861496	-34.625366	-91.863823
2882.003275	-181.776733	-35.502041	-86.428406
2882.006603	-177.744003	-35.911163	-81.168327
2882.009937	-172.542374	-35.735828	-77.018707
2882.013267	-168.100525	-35.560490	-72.752197
2882.016609	-163.717133	-35.268261	-67.725891
2882.019944	-159.216827	-35.385151	-63.693165
2882.023275	-154.365875	-35.268261	-60.478668
2882.027546	-146.534180	-34.976036	-54.634132
2882.030859	-142.676804	-34.274693	-51.185860
2882.034220	-139.345413	-33.982464	-48.088257
2882.037046	-135.663361	-33.631794	-45.341324
2882.040360	-131.630630	-33.222679	-43.529518
2882.043695	-128.474579	-33.164230	-41.016365
2882.046619	-125.669205	-32.988895	-38.503220
2882.049938	-121.870255	-32.170662	-36.223850
2882.053267	-119.181763	-31.761539	-33.593807
2882.056599	-116.259506	-31.410870	-31.080658
2882.059936	-113.337234	-31.001755	-30.028641
2882.063261	-109.830505	-29.949738	-28.099945
2882.066601	-107.375793	-30.826416	-26.872593
2882.069930	-104.453537	-29.774399	-25.119232
2882.073262	-102.057281	-29.365284	-23.891880
2882.076620	-99.135010	-29.131504	-23.015198
2882.079930	-96.095840	-29.073055	-22.080074
2882.083262	-94.342499	-28.780834	-20.092930
2882.086598	-92.063110	-28.663940	-18.631798
2882.089929	-90.134430	-28.313271	-16.703102
2882.093256	-87.621277	-27.611927	-15.884869
2882.096603	-85.634140	-27.027473	-14.832851
2882.100797	-80.900055	-25.917007	-12.436588
2882.104103	-79.146698	-26.150791	-11.852135
2882.107488	-76.925781	-24.806545	-10.624783
2882.110351	-75.464645	-24.864990	-10.449448
2882.113680	-73.419052	-24.748100	-9.631214
2882.117019	-71.198135	-24.455872	-9.046761
2882.119937	-69.678558	-23.871418	-8.929871
2882.123255	-68.042068	-23.520748	-8.228527
2882.126591	-66.873169	-23.228523	-7.176510
2882.129921	-65.236694	-22.644070	-5.890713
2882.133262	-64.009354	-22.585621	-5.540039
2882.136592	-62.080658	-22.410290	-5.247810
2882.139926	-61.028641	-22.468731	-5.130920
2882.143256	-60.444183	-21.825832	-4.137352
2882.146588	-58.281708	-21.066044	-4.254242
2882.149957	-57.229683	-21.182934	-4.137352
