time (s)	magX	magY	magZ
7229.535139	363.109314	95.415543	-437.392761
7229.538478	363.284607	93.895966	-454.108124
7229.541804	362.933960	91.324371	-471.992432
7229.545138	362.291077	88.752777	-489.175354
7229.548463	361.239075	85.304504	-505.890717
7229.551803	359.135010	82.732910	-524.476318
7229.555135	355.920532	79.343071	-541.600830
7229.559339	348.205750	71.686737	-577.661621
7229.562691	343.705444	67.654007	-595.078247
7229.566074	338.036255	62.452366	-612.845703
7229.568910	332.074829	58.068962	-631.431274
7229.572249	325.236694	52.633545	-648.555786
7229.575565	317.229706	47.022793	-664.745117
7229.578468	308.462891	41.178257	-681.460571
7229.581839	299.754517	34.340153	-698.526611
7229.585140	288.942139	27.151373	-714.540649
7229.588469	278.363525	20.313267	-729.151978
7229.591802	266.323792	13.066044	-744.406250
7229.595162	253.524261	5.818819	-758.140869
7229.598470	239.497360	-2.012857	-771.291016
7229.601797	225.704269	-10.253651	-783.447754
7229.605130	210.683807	-18.377556	-794.961426
7229.608465	195.137344	-26.384571	-804.955566
7229.611801	179.240204	-35.443600	-815.008179
7229.615129	161.823486	-44.327290	-823.307495
7229.618462	145.049683	-53.094097	-830.788452
7229.621794	126.230270	-61.685566	-836.925171
7229.625152	108.755112	-71.153702	-841.717651
7229.628467	90.812393	-79.394516	-845.516602
7229.632656	52.121567	-97.746353	-849.023315
7229.635983	33.360607	-106.162476	-848.555786
7229.639339	14.658092	-114.812393	-847.503784
7229.642221	-4.395088	-123.286972	-844.289307
7229.645547	-23.214493	-131.586212	-840.256592
7229.648891	-41.800117	-139.067215	-834.236694
7229.651797	-60.035080	-146.723557	-828.392212
7229.655127	-77.101105	-154.730576	-819.742310
7229.658462	-93.758041	-161.568665	-810.975464
7229.661795	-111.233200	-167.530106	-800.922852
7229.665123	-127.247223	-173.549988	-789.584473
7229.668504	-143.553467	-180.388092	-778.830444
7229.671794	-157.463486	-185.414383	-764.745117
7229.675124	-171.957916	-190.674469	-751.302734
7229.678461	-184.815903	-195.174759	-736.574585
7229.681818	-197.089432	-199.675049	-720.969604
7229.685124	-209.246078	-203.064896	-706.066040
7229.688463	-219.707779	-206.045593	-689.233765
7229.691795	-230.169479	-208.909409	-672.635254
7229.695129	-240.163651	-210.954987	-655.452393
7229.698454	-248.579788	-213.234375	-638.386353
7229.701791	-256.294556	-215.221512	-591.513184
7229.706000	-270.496826	-217.617767	-585.843994
7229.709381	-275.464661	-218.377563	-568.485657
7229.712286	-280.198730	-218.202225	-551.068970
7229.715575	-284.289856	-217.968430	-532.892456
7229.718915	-287.913513	-217.793106	-515.534180
7229.722214	-291.420227	-216.916443	-498.468140
7229.725153	-294.167175	-216.565750	-481.519012
7229.728454	-295.160706	-215.689087	-464.920532
7229.731791	-296.329651	-214.286392	-448.263580
7229.735119	-297.615417	-212.533020	-432.366455
7229.738460	-297.615417	-211.305679	-416.118652
7229.741788	-297.381653	-209.201645	-400.805969
7229.745124	-296.621887	-207.214493	-385.434845
7229.748457	-295.686768	-204.876678	-370.940399
7229.751784	-294.634705	-202.538864	-355.393921
7229.755120	-292.881348	-199.149033	-341.367065
7229.758448	-290.309753	-196.577454	-328.099945
7229.761779	-287.738159	-194.064301	-314.832855
7229.765116	-285.867920	-190.791367	-302.150208
7229.768458	-282.711853	-188.044418	-290.110474
7229.771780	-280.081848	-184.829926	-277.252502
7229.775118	-276.633545	-181.615448	-251.361206
7229.779373	-269.678528	-175.595566	-244.464645
7229.782630	-265.821167	-172.381058	-233.476929
7229.785955	-262.372864	-169.108124	-222.781418
7229.788883	-258.573914	-165.601410	-213.663940
7229.792206	-254.482773	-162.445358	-204.254242
7229.795535	-250.859146	-159.113968	-195.019867
7229.798462	-247.060196	-156.191696	-186.603745
7229.801775	-242.618332	-152.801880	-178.012268
7229.805114	-238.702499	-149.821152	-169.946823
7229.808445	-234.377548	-146.255997	-162.056702
7229.811785	-230.344833	-143.742844	-154.692581
7229.815112	-226.078323	-141.346573	-148.614258
7229.818462	-222.396255	-138.015198	-141.367035
7229.821779	-218.071304	-134.566925	-135.639404
7229.825112	-214.213913	-132.287552	-128.976624
7229.828447	-210.064285	-129.189957	-122.839867
7229.831780	-206.616013	-126.384567	-117.930450
7229.835146	-202.817062	-123.754532	-112.845703
7229.838439	-199.135025	-121.650497	-107.585625
7229.841799	-194.926956	-119.254242	-102.909996
7229.845109	-190.777328	-116.448868	-98.526596
7229.849312	-184.172989	-111.714783	-90.461136
7229.852649	-180.958511	-109.493866	-86.895966
7229.856047	-177.276443	-107.682053	-82.103455
7229.858887	-173.886612	-104.993576	-79.064293
7229.862219	-171.256561	-103.064880	-75.791351
7229.865536	-167.808289	-100.843964	-72.985977
7229.868441	-164.652252	-98.739914	-69.420807
7229.871771	-161.379318	-96.811218	-65.563416
7229.875109	-158.924606	-95.583878	-62.407368
7229.878436	-155.710098	-93.713623	-59.718880
7229.881769	-153.021622	-91.492691	-57.088840
7229.885124	-150.450043	-89.680893	-54.517242
7229.888439	-147.469299	-87.635300	-52.004093
7229.891767	-144.430161	-86.057266	-49.315605
7229.895103	-142.092346	-84.362366	-47.503803
7229.898434	-139.345413	-82.550552	-45.107544
7229.901769	-137.475159	-81.498535	-43.178848
7229.905105	-134.377548	-79.452942	-41.542374
7229.908437	-132.098190	-77.582703	-40.022797
7229.911770	-129.351257	-76.647568	-37.392757
7229.915105	-127.539459	-75.069550	-35.639397
7229.918438	-125.260086	-74.017532	-33.710697
7229.922703	-120.642899	-70.744598	-31.314438
7229.925987	-119.298660	-69.575684	-29.444187
7229.929318	-117.019287	-68.874344	-27.924610
7229.932196	-115.499710	-67.354767	-26.112801
7229.935519	-113.161896	-66.185852	-25.703682
7229.938853	-111.233200	-65.192291	-24.359440
7229.941767	-109.304504	-64.432495	-23.599651
7229.945100	-107.551147	-62.854473	-21.904736
7229.948431	-105.739334	-61.393337	-20.677383
7229.951768	-104.395096	-60.399769	-20.502048
7229.955093	-102.291061	-59.815311	-19.859150
7229.958434	-101.472824	-59.113972	-18.339573
7229.961763	-99.836349	-58.178844	-17.229107
7229.965098	-98.433655	-57.302158	-15.943310
7229.968431	-96.914093	-57.009937	-15.183525
7229.971792	-95.511398	-55.198132	-13.897728
7229.975099	-94.342499	-55.139690	-14.248398
7229.978427	-92.706024	-53.912334	-13.605495
7229.981761	-91.478668	-53.035648	-12.553482
7229.985110	-90.192871	-52.392750	-12.027470
7229.988427	-89.199310	-51.632961	-11.559906
7229.991756	-88.088837	-51.106953	-11.326126
7229.995944	-85.809464	-49.704266	-10.274109
7229.999300	-84.874344	-48.944477	-9.923439
7230.002627	-83.588547	-48.886036	-9.280540
7230.005547	-82.945648	-47.775570	-8.988312
7230.008876	-81.718292	-47.658680	-8.754532
7230.012203	-81.075394	-47.074223	-8.345417
7230.015131	-79.789597	-46.431332	-7.585625
7230.018430	-78.796036	-45.788425	-7.994743
7230.021754	-78.386917	-45.203976	-6.884281
7230.025094	-77.101105	-44.853306	-6.708946
7230.028455	-76.575104	-44.502628	-6.182938
7230.031755	-76.224442	-44.093510	-6.066044
7230.035093	-75.347748	-43.918179	-5.306259
7230.038432	-74.646408	-43.099941	-4.078903
7230.041762	-73.828171	-42.749271	-4.429577
7230.045087	-73.243713	-42.340153	-4.429577
7230.048423	-72.308594	-42.223263	-3.962013
7230.051753	-71.841019	-41.580364	-2.734657
7230.055087	-71.431915	-40.995907	-2.909996
7230.058421	-70.789017	-41.405025	-2.617767
7230.061754	-69.912338	-40.002338	-2.325546
7230.065088	-69.561661	-40.177677	-2.033318
7230.069358	-68.509644	-39.008770	-2.559326
7230.072726	-68.509644	-39.300991	-2.734657
7230.075929	-68.100525	-38.365864	-2.267097
7230.078838	-68.158966	-38.891880	-1.916420
7230.082176	-67.223846	-38.658100	-1.156639
7230.085523	-66.990067	-37.898304	-0.981300
7230.088414	-66.580948	-37.722973	-1.390419
7230.091754	-65.762711	-37.430744	-1.331970
7230.095088	-65.704269	-37.021626	-1.098190
7230.098412	-65.236694	-37.080067	-0.864410
7230.101763	-64.593811	-37.021626	-1.331970
7230.105080	-64.360016	-36.787846	-1.448860
7230.108418	-64.476913	-36.378727	-1.507309
7230.111745	-64.184692	-36.320286	-0.572182
7230.115081	-64.360016	-36.086498	-0.981300
7230.118428	-64.301575	-35.969612	-0.163063
7230.121747	-63.892456	-36.086498	-1.682640
7230.125086	-63.892456	-35.794273	-0.338402
7230.128419	-63.658676	-35.735828	-0.221512
7230.131748	-63.191116	-36.028053	-0.396843
7230.135079	-63.658676	-36.203396	-0.864410
7230.138452	-63.191116	-36.028053	-0.455292
7230.142585	-62.957336	-35.794273	-0.572182
7230.145963	-62.665100	-35.852722	-0.455292
7230.149289	-62.723557	-35.794273	0.012268
7230.152194	-62.665100	-35.385151	-0.455292
7230.155524	-62.606674	-35.852722	-0.163063
7230.158859	-62.665100	-35.502041	-0.396843
7230.161745	-62.898880	-35.502041	-0.163063
7230.165075	-63.015778	-35.268261	-0.805962
7230.168414	-62.665100	-36.144947	0.772064
7230.171745	-62.255997	-35.618935	0.129158
7230.175078	-62.372894	-35.502041	0.479836
7230.178410	-63.074234	-35.502041	-0.104622
7230.181737	-63.191116	-35.677383	-0.396843
7230.185078	-63.308014	-35.911163	-1.448860
7230.188417	-63.424896	-36.261837	-0.747520
7230.191738	-63.249557	-35.209820	-0.922859
7230.195073	-63.249557	-35.794273	-0.805962
7230.198409	-63.834015	-35.268261	-0.747520
7230.201737	-64.126236	-35.911163	-0.279953
7230.205071	-64.301575	-35.911163	-0.747520
7230.208411	-64.535355	-36.028053	-1.448860
7230.211736	-64.769135	-36.203396	-0.279953
7230.216042	-65.470474	-36.495617	-1.682640
7230.219341	-65.821152	-36.846287	-1.039749
7230.222590	-65.938049	-36.670956	-1.215080
7230.225497	-65.762711	-36.554066	-0.396843
7230.228830	-66.697830	-36.846287	-1.390419
7230.232175	-66.288727	-37.372303	-1.799530
7230.235075	-67.516083	-37.547634	-1.098190
7230.238403	-67.866745	-37.430744	-2.208656
7230.241736	-68.451202	-37.547634	-1.390419
7230.245068	-68.743439	-37.781414	-1.565750
7230.248400	-69.094101	-38.248974	-2.091766
7230.251735	-70.087677	-38.833431	-2.208656
7230.255067	-70.496780	-38.658100	-2.091766
7230.258401	-70.964355	-39.242550	-1.916420
7230.261735	-71.665695	-39.768559	-2.325546
7230.265066	-72.191696	-38.950321	-2.968437
7230.268397	-73.009933	-39.885448	-3.085327
7230.271776	-73.126831	-40.469898	-3.436001
7230.275082	-74.237289	-40.060787	-4.078903
7230.278401	-74.529510	-40.353008	-3.728233
7230.281730	-75.698425	-41.346584	-4.488026
7230.285067	-75.990646	-41.521915	-4.838696
7230.289254	-77.919357	-42.457043	-4.955585
7230.292570	-78.737579	-42.632381	-6.066044
7230.295939	-79.964935	-42.807713	-6.241383
7230.298827	-80.841614	-43.742840	-6.182938
7230.302174	-81.250732	-43.742840	-7.234951
7230.305509	-82.594986	-44.853306	-7.118061
7230.308399	-83.413208	-45.028645	-7.234951
7230.311808	-84.582108	-45.320866	-6.825836
7230.315063	-85.575684	-45.613094	-7.936295
7230.318414	-86.919922	-45.788425	-8.871422
7230.321726	-88.088837	-46.898891	-8.929871
7230.325058	-88.673294	-47.308010	-9.689655
7230.328394	-90.134430	-47.950909	-10.040329
7230.331726	-91.537125	-48.360020	-10.449448
7230.335061	-92.822906	-49.178257	-11.033901
7230.338397	-93.699585	-49.762707	-11.559906
7230.341725	-94.751602	-50.405613	-11.969028
7230.345067	-96.212738	-50.697834	-12.670372
7230.348392	-98.082993	-51.808300	-13.956169
7230.351726	-99.777908	-52.743427	-14.131508
7230.355058	-101.355942	-53.444767	-15.651085
7230.359263	-104.336639	-54.204563	-16.469322
7230.362682	-106.206894	-54.730564	-17.521336
7230.365993	-107.551147	-55.724140	-18.631798
7230.368850	-109.012268	-56.483929	-19.625370
7230.372143	-110.765640	-57.126827	-20.911167
7230.375490	-112.986557	-57.828175	-22.080074
7230.378391	-115.558167	-59.289303	-22.606079
7230.381725	-117.019287	-59.990650	-24.184105
7230.385059	-119.298660	-60.867329	-25.411457
7230.388385	-121.052017	-61.685566	-26.989483
7230.391722	-123.214493	-63.088253	-27.924610
7230.395056	-125.084747	-63.497372	-29.035072
7230.398422	-127.948563	-64.432495	-30.729984
7230.401724	-130.286377	-65.718292	-32.600235
7230.405061	-132.215073	-66.828751	-34.178261
7230.408388	-135.137344	-68.173004	-35.990067
7230.411716	-136.949158	-69.166565	-37.451202
7230.415046	-140.222092	-70.277039	-40.081242
7230.418391	-143.611938	-71.621277	-42.009937
7230.421718	-145.540619	-72.907074	-44.347755
7230.425051	-148.755127	-74.718887	-45.984222
7230.428393	-151.209824	-75.946228	-47.912918
7230.432991	-157.755707	-77.991821	-53.231445
7230.435926	-160.970184	-80.154297	-54.692581
7230.439254	-164.126251	-81.206314	-58.140854
7230.442180	-167.223831	-82.082993	-60.946232
7230.445473	-170.789001	-83.953247	-63.926945
7230.448833	-173.360611	-85.414383	-67.082993
7230.451717	-177.393341	-86.700180	-71.291061
7230.455048	-180.783173	-88.102875	-75.265343
7230.458392	-183.939224	-89.622437	-78.538284
7230.461716	-188.497940	-91.843369	-82.512566
7230.465048	-191.361771	-94.239624	-86.194626
7230.468378	-195.803604	-94.707199	-90.753365
7230.471712	-199.661026	-96.928116	-95.604324
7230.475043	-203.635300	-98.213913	-99.812393
7230.478382	-207.317368	-99.967270	-105.247810
7230.481717	-211.233200	-102.071304	-110.157227
7230.485078	-215.558151	-103.415558	-114.891296
7230.488374	-219.824661	-104.409119	-120.092926
7230.491715	-224.091171	-106.746933	-126.288132
7230.495039	-228.766800	-108.675629	-132.424896
7230.498376	-233.617752	-110.955002	-138.678558
7230.501706	-237.942734	-112.065460	-144.990646
7230.505922	-246.417313	-115.046173	-159.601990
7230.509306	-251.268265	-116.156631	-167.316772
7230.512639	-256.294556	-118.260681	-174.739334
7230.515474	-260.502625	-120.364716	-182.220337
7230.518797	-266.171814	-121.650497	-191.688477
7230.522142	-270.555237	-123.520752	-200.630630
7230.525044	-274.938660	-124.689651	-209.864990
7230.528411	-279.438904	-126.618362	-219.683807
7230.531705	-283.763916	-127.845703	-228.918182
7230.535041	-288.614868	-128.897720	-240.490356
7230.538372	-292.822937	-130.358856	-251.244308
7230.541706	-296.680298	-132.229111	-262.582703
7230.545035	-301.472839	-132.872009	-274.563995
7230.548374	-305.038025	-133.924026	-286.311523
7230.551702	-309.421387	-135.268265	-298.994141
7230.555035	-312.694336	-135.735825	-311.384583
7230.558374	-316.668579	-136.554062	-324.943909
7230.561702	-319.532471	-136.670959	-339.146118
7230.565041	-322.513123	-137.430740	-353.582123
7230.568378	-325.201660	-137.898315	-369.187012
7230.571732	-327.247192	-138.307419	-383.447693
7230.575038	-329.701904	-137.781418	-398.701935
7230.579221	-332.448853	-137.021637	-430.087097
7230.582558	-332.799561	-135.969604	-447.328461
7230.585881	-333.267090	-134.917603	-463.751587
7230.588791	-332.448853	-133.924026	-480.116302
7230.592130	-332.565735	-132.112228	-497.357666
7230.595479	-331.046204	-129.248398	-514.540649
7230.598371	-328.825256	-126.969040	-531.840454
7230.601698	-326.545898	-124.397430	-549.023376
7230.605035	-323.740479	-121.007599	-566.673828
7230.608365	-319.532471	-117.091751	-584.149048
7230.611727	-315.265930	-113.701935	-601.448853
7230.615040	-309.830505	-110.195221	-618.105713
7230.618360	-304.570435	-105.811798	-634.587402
7230.621700	-297.440125	-100.259506	-651.945679
7230.625036	-289.491516	-95.350082	-668.953247
7230.628367	-280.549377	-89.096436	-684.382812
7230.631696	-271.841003	-83.076569	-700.338379
7230.635030	-262.080627	-76.822922	-715.475830
7230.638362	-251.209824	-70.335480	-729.502686
7230.641693	-239.696060	-63.614262	-743.587891
7230.645033	-227.364120	-56.483929	-756.562866
7230.648364	-214.564590	-48.769146	-768.427246
7230.652573	-185.984802	-33.047340	-790.694946
7230.655986	-171.315033	-24.689651	-799.286377
7230.659334	-155.826996	-16.390415	-807.819336
7230.662225	-139.696075	-8.558739	-815.475830
7230.665469	-122.396255	0.208065	-821.028076
7230.668785	-104.979553	9.033314	-827.047974
7230.671691	-87.153702	17.040327	-831.840454
7230.675027	-69.503220	26.157803	-834.762695
7230.678363	-50.859154	35.684395	-835.697876
7230.681687	-33.033310	44.158974	-836.574585
7230.685028	-14.389244	52.750435	-835.931641
7230.688356	3.962593	61.283463	-833.827637
7230.691695	22.665108	69.524261	-830.963745
7230.695023	41.426064	77.940384	-826.288208
7230.698357	59.135010	85.713615	-820.969604
7230.701704	77.837524	93.311523	-814.131470
7230.705024	95.780243	100.383392	-806.475220
7230.708351	112.554062	107.279953	-798.059082
7230.711687	129.853882	114.234955	-788.532471
7230.715022	145.751022	120.547043	-777.778442
7230.718354	161.648163	126.625366	-767.024536
7230.721685	176.551727	132.528351	-754.692627
7230.725905	204.956161	142.931610	-726.872559
7230.729208	217.814148	147.548798	-713.254761
7230.732537	230.087662	152.107529	-699.461670
7230.735441	241.718292	155.906479	-684.499756
7230.738778	253.232025	159.588547	-668.193481
7230.742114	262.817078	162.978363	-651.770386
7230.745048	271.759216	165.900635	-635.580933
7230.748356	280.526001	168.413788	-619.859131
7230.751691	288.240784	170.576263	-603.319092
7230.755017	295.312683	172.446518	-586.369995
7230.758349	301.390991	173.966110	-569.888367
7230.761686	307.060181	175.368790	-553.114624
7230.765017	311.092926	176.070129	-536.106934
7230.768353	315.184082	176.713028	-520.034485
7230.771685	319.099945	176.829910	-503.903564
7230.775048	322.197510	176.946808	-486.954437
7230.778349	324.476929	177.063690	-471.232635
7230.781681	326.054932	176.128571	-454.575684
7230.785017	328.042053	175.953232	-439.321442
7230.788359	328.334290	174.959671	-424.593231
7230.791687	328.626526	173.732315	-409.631195
7230.795015	328.100525	172.388077	-394.844543
7230.799225	327.165405	169.348907	-366.790771
7230.802604	325.353577	167.420212	-353.406769
7230.805506	323.892456	166.075974	-339.087677
7230.808797	322.080658	163.387482	-326.112793
7230.812152	319.509033	161.400345	-313.722412
7230.815437	316.995911	159.705429	-301.857971
7230.818348	314.658081	157.426071	-290.285797
7230.821679	311.268250	154.503799	-278.362946
7230.825016	308.462891	152.282883	-268.485687
7230.828342	305.306824	150.120392	-257.147278
7230.831702	301.741669	146.672134	-246.451782
7230.835012	297.592041	144.334305	-236.399185
7230.838346	293.500854	142.230270	-226.463470
7230.841677	290.052612	139.775574	-216.995331
7230.845009	285.786072	137.729980	-208.111633
7230.848338	280.876678	134.281708	-199.111053
7230.851675	276.610168	132.294571	-191.630035
7230.855008	272.869659	129.489197	-182.980133
7230.858343	268.427826	127.735825	-175.382233
7230.861676	264.511963	124.579773	-167.258331
7230.865006	259.894806	121.774399	-160.420227
7230.868383	256.154297	119.611923	-153.932800
7230.872537	247.036819	114.994736	-141.016357
7230.875885	242.887192	112.715378	-134.879608
7230.879193	239.146698	110.436005	-129.385742
7230.882106	234.295731	108.273529	-122.722977
7230.885433	230.029221	106.461716	-118.690247
7230.888763	225.704269	104.240799	-113.663940
7230.891672	222.372879	102.019867	-109.280540
7230.895003	218.164810	99.915833	-104.312683
7230.898341	214.541214	98.162476	-100.396851
7230.901665	210.976044	96.350677	-95.955002
7230.904999	207.469315	93.837524	-92.039162
7230.908377	203.495026	91.908829	-88.123322
7230.911676	199.520737	90.447693	-84.324371
7230.915000	195.429565	88.694336	-81.109879
7230.918366	192.390411	86.181183	-77.369377
7230.921668	189.059021	84.778488	-74.271774
7230.925002	185.143188	83.609589	-70.823502
7230.928340	181.987152	81.680885	-67.725891
7230.931668	178.772644	79.635300	-64.452957
7230.935001	176.259491	78.349503	-61.647575
7230.938335	172.928101	76.245468	-58.491528
7230.941662	170.064301	75.310349	-56.387497
7230.945871	164.453537	72.329636	-52.413212
7230.949205	161.414368	71.277618	-49.374054
7230.952640	158.375214	69.465805	-47.503803
7230.955449	155.978958	68.121567	-45.165985
7230.958803	153.056702	66.777321	-43.704857
7230.961705	150.426651	65.491524	-41.834602
7230.964992	148.439514	64.322617	-40.256577
7230.968338	145.926361	62.569260	-38.035656
7230.971666	143.120972	61.634132	-35.405613
7230.974992	141.601410	60.757454	-34.061371
7230.978330	138.737579	59.705433	-32.541790
7230.981658	136.282867	58.536530	-31.372883
7230.984991	134.237289	57.601402	-29.561077
