time (s)	magX	magY	magZ
2220.782738	154.050262	99.623611	-56.796612
2220.786067	157.264755	102.136765	-59.485100
2220.789397	161.297485	104.240799	-62.641148
2220.793603	168.135590	108.799530	-69.946815
2220.797013	171.116302	111.020462	-74.096436
2220.800365	175.032135	113.416718	-77.895386
2220.803151	178.597305	116.163651	-81.285217
2220.806486	182.396255	118.384567	-86.603745
2220.809826	185.669189	121.189957	-91.220924
2220.812743	190.111038	123.703094	-96.013443
2220.816060	194.377563	125.865570	-100.338402
2220.819393	198.118057	128.495621	-106.416718
2220.822723	202.326126	131.417877	-112.261253
2220.826059	206.417297	133.931046	-117.404449
2220.829400	210.742264	136.619522	-123.190536
2220.832728	214.248978	139.366455	-129.677963
2220.836061	218.398590	141.938049	-136.340744
2220.839391	222.606659	144.860306	-143.003510
2220.842745	226.347153	148.016373	-150.075394
2220.846061	230.672119	150.237289	-157.965515
2220.849395	235.172409	153.627121	-166.264755
2220.852726	239.380478	156.374039	-173.511978
2220.856060	243.062531	159.530090	-181.986557
2220.859418	247.387497	162.686142	-191.104034
2220.862758	250.718887	165.783752	-199.987732
2220.866913	258.433655	171.452942	-219.040909
2220.870236	261.881958	174.550552	-229.502625
2220.873609	265.213318	177.881943	-239.379898
2220.876483	268.427826	180.921097	-250.659851
2220.879810	271.876099	183.726471	-262.816467
2220.883140	274.915222	186.473404	-273.336639
2220.886056	277.837524	189.570999	-286.136169
2220.889384	281.052002	191.733490	-297.825256
2220.892717	282.922272	194.947983	-310.040344
2220.896057	285.026306	196.993576	-323.132080
2220.899384	286.487427	199.156036	-337.626526
2220.902736	288.474579	201.260086	-351.419647
2220.906060	289.701935	202.779663	-366.849213
2220.909388	290.987732	204.182343	-381.402100
2220.912716	291.279968	205.760361	-397.533020
2220.916082	291.630615	206.169495	-413.137939
2220.919387	291.396851	207.163055	-428.801300
2220.922721	290.227936	207.747513	-445.399750
2220.926055	288.766815	207.981293	-462.758026
2220.929391	287.188782	207.630615	-479.473419
2220.932714	284.324951	206.169495	-497.123932
2220.936048	281.811829	204.766800	-514.423706
2220.940253	273.980103	200.500290	-549.841614
2220.943588	269.304504	197.636475	-567.550537
2220.946985	263.518402	194.655762	-585.376343
2220.949841	257.323212	190.856812	-603.026855
2220.953174	250.601990	186.356522	-619.859131
2220.956483	241.952072	181.447113	-637.568115
2220.959414	233.828171	175.894791	-655.101685
2220.962712	224.593811	170.459366	-671.641724
2220.966048	214.424316	163.504379	-687.538940
2220.969381	204.021042	157.192291	-702.793091
2220.972728	192.273529	149.594391	-717.579712
2220.976050	179.298645	140.652252	-732.600220
2220.979378	165.797775	132.995911	-745.925781
2220.982719	152.764465	124.112213	-759.134399
2220.986054	138.328461	115.345413	-770.355957
2220.989379	123.483337	105.760376	-781.577515
2220.992710	107.761536	96.000000	-791.104004
2220.996040	92.215080	85.538284	-799.987671
2220.999377	75.616600	75.661011	-807.877808
2221.002729	57.790764	64.439514	-814.014648
2221.006047	41.601402	54.036236	-819.157837
2221.009379	24.243130	42.990063	-823.599609
2221.013628	-10.473404	19.728813	-827.749268
2221.016984	-27.422562	8.448860	-828.216797
2221.020219	-44.897720	-2.421974	-826.171265
2221.023134	-62.957336	-13.760376	-824.593262
2221.026469	-79.438919	-24.631210	-820.735840
2221.029808	-96.504974	-36.378727	-816.352417
2221.032710	-112.869675	-46.898891	-810.157227
2221.036043	-129.468140	-57.711285	-802.617798
2221.039372	-144.547058	-68.289886	-793.909424
2221.042706	-159.509064	-78.985382	-785.084229
2221.046059	-173.594376	-88.921097	-775.031494
2221.049370	-187.212158	-99.791931	-762.758057
2221.052699	-200.128586	-108.675629	-750.601440
2221.056039	-212.869675	-118.202225	-737.158936
2221.059377	-224.383408	-126.969040	-723.365845
2221.062702	-235.020432	-135.443604	-707.585693
2221.066036	-245.657516	-143.567505	-691.863892
2221.069380	-255.008774	-150.873184	-675.382202
2221.072708	-263.658691	-158.471085	-658.608398
2221.076033	-270.847473	-165.309189	-641.542358
2221.079373	-277.393372	-171.270599	-624.417847
2221.082736	-283.705444	-176.472260	-576.551147
2221.086880	-293.758057	-186.115738	-570.765015
2221.090235	-297.849182	-189.622437	-552.471680
2221.093583	-300.479248	-192.720047	-533.944458
2221.096460	-303.693726	-196.635880	-515.651123
2221.099813	-304.628845	-199.499725	-497.942139
2221.103158	-306.265381	-201.311508	-480.116302
2221.106036	-306.499146	-202.889526	-462.758026
2221.109416	-307.609558	-204.116882	-445.633545
2221.112703	-306.674438	-204.993576	-428.859741
2221.116036	-305.973145	-205.168915	-412.144379
2221.119369	-305.096436	-204.876678	-396.013458
2221.122702	-303.167725	-204.292221	-379.707184
2221.126069	-300.888367	-204.000015	-364.219147
2221.129368	-298.725891	-202.655762	-349.841614
2221.132712	-296.095825	-201.662201	-334.938049
2221.136031	-293.115112	-200.259506	-320.911163
2221.139361	-289.959106	-198.564590	-307.351868
2221.142697	-286.452393	-196.168320	-295.253662
2221.146033	-283.004089	-193.830505	-282.921692
2221.149361	-279.146667	-191.960251	-269.888367
2221.152698	-276.224426	-189.154877	-258.900635
2221.156900	-267.749878	-184.245483	-235.171829
2221.160347	-263.307983	-182.199875	-225.820572
2221.163614	-259.976624	-179.160736	-216.177094
2221.166456	-254.599655	-175.712463	-205.598480
2221.169818	-250.450027	-173.549988	-195.838120
2221.173117	-246.125076	-170.277023	-186.603745
2221.176040	-241.566360	-167.530106	-178.129166
2221.179363	-237.182938	-164.315613	-169.479263
2221.182695	-232.273544	-161.627121	-162.348923
2221.186022	-227.656326	-158.412628	-153.757446
2221.189360	-223.272934	-155.139694	-145.808884
2221.192696	-218.831100	-153.035660	-139.496796
2221.196023	-214.155472	-149.704269	-133.593811
2221.199362	-209.947403	-146.781998	-125.762131
2221.202693	-205.680893	-143.918182	-119.274696
2221.206026	-200.946823	-142.047928	-113.313271
2221.209361	-196.972549	-138.891876	-108.228531
2221.212714	-192.589127	-136.846298	-103.436005
2221.216023	-188.147293	-133.924026	-98.117477
2221.219360	-183.997650	-131.177094	-93.208069
2221.222689	-180.315613	-128.780838	-88.006432
2221.226030	-176.049088	-126.852142	-83.973701
2221.230207	-169.561676	-122.176514	-75.557571
2221.233537	-165.704269	-119.195801	-71.992401
2221.236897	-161.963776	-116.974869	-67.959679
2221.239778	-158.690842	-115.221512	-63.693165
2221.243109	-155.067200	-112.766815	-60.361778
2221.246434	-152.203400	-111.071884	-57.965519
2221.249357	-148.638229	-108.091187	-54.458797
2221.252689	-145.657516	-106.396271	-52.354767
2221.256039	-143.027466	-105.052017	-49.374054
2221.259350	-139.812973	-102.480423	-46.627121
2221.262709	-137.007599	-100.668610	-44.406197
2221.266029	-134.436005	-98.506134	-42.360611
2221.269357	-131.572174	-96.986557	-39.204559
2221.272685	-128.942139	-95.350082	-37.275864
2221.276015	-126.253647	-93.362946	-35.756287
2221.279349	-124.441849	-91.375809	-34.295151
2221.282688	-121.987137	-89.622437	-32.658680
2221.286053	-119.883102	-87.752197	-30.963768
2221.289346	-117.311508	-86.641739	-29.619522
2221.292680	-115.090591	-85.005264	-27.398602
2221.296018	-113.454117	-83.544128	-25.937466
2221.299365	-110.824081	-82.024551	-24.768559
2221.303552	-106.966690	-78.810043	-21.086502
2221.306886	-104.862656	-77.115128	-20.326714
2221.310278	-102.349503	-75.478668	-19.800705
2221.313134	-101.239044	-74.894211	-18.865578
2221.316554	-99.135010	-73.491531	-17.404446
2221.319777	-97.966095	-71.971939	-16.293983
2221.322679	-95.862061	-70.803040	-15.417305
2221.326011	-94.634705	-69.867905	-14.423733
2221.329349	-92.939804	-68.699005	-13.956169
2221.332680	-90.777328	-67.705444	-13.196381
2221.336006	-89.491516	-66.361191	-12.027470
2221.339344	-87.913498	-65.718292	-11.384575
2221.342710	-87.036819	-64.666275	-10.741673
2221.346007	-85.867920	-64.140274	-9.689655
2221.349342	-84.114548	-62.562244	-8.929871
2221.352677	-83.354752	-61.510227	-8.228527
2221.356007	-81.542953	-60.458210	-7.585625
2221.359340	-79.848038	-59.932201	-7.410290
2221.362672	-78.971359	-59.230862	-6.416718
2221.366006	-77.919357	-58.821743	-5.773823
2221.369338	-76.575104	-57.769726	-5.247810
2221.372675	-75.289307	-57.243717	-4.371132
2221.376990	-73.769730	-55.373470	-3.786682
2221.380242	-72.659271	-55.081242	-3.728233
2221.383526	-71.139679	-54.146114	-2.968437
2221.386469	-70.496780	-53.678555	-2.909996
2221.389761	-69.737000	-53.152538	-2.500877
2221.393104	-68.801865	-52.743427	-1.799530
2221.396004	-68.158966	-52.275860	-1.624199
2221.399333	-67.165405	-51.516071	-1.273529
2221.402675	-66.580948	-51.106953	-1.390419
2221.406006	-65.821152	-50.347164	-0.747520
2221.409335	-65.178268	-49.938046	-0.513733
2221.412673	-64.652252	-49.645817	-0.338402
2221.416019	-63.483353	-49.178257	-0.221512
2221.419332	-63.424896	-48.769146	0.187607
2221.422678	-62.255997	-48.126240	0.830505
2221.426011	-62.489777	-47.308010	1.005844
2221.429351	-61.846878	-47.308010	1.590294
2221.432664	-61.554642	-46.840443	1.356514
2221.436001	-60.035080	-46.372883	1.298065
2221.439332	-59.742844	-45.963764	1.239624
2221.442661	-59.684395	-45.905315	1.064285
2221.445997	-59.158386	-45.262424	1.999413
2221.450180	-58.398590	-44.619518	2.174751
2221.453512	-58.223259	-44.268848	1.824081
2221.456870	-57.580360	-43.859730	1.298065
2221.459817	-57.580360	-43.450611	1.765633
2221.463116	-56.879021	-43.275272	1.707184
2221.466442	-56.528343	-42.983051	2.350082
2221.469331	-56.177673	-43.216831	1.824081
2221.472675	-55.826996	-42.515491	2.057861
2221.475997	-56.177673	-42.047924	2.291641
2221.479333	-55.300995	-41.814144	2.583862
2221.482669	-55.417885	-41.755695	2.350082
2221.485991	-54.833435	-41.346584	2.817642
2221.489362	-54.424309	-41.580364	3.226768
2221.492667	-54.132095	-40.995907	2.992981
2221.496001	-54.365875	-41.171246	2.233192
2221.499331	-53.898308	-40.820568	2.876091
2221.502675	-53.898308	-41.112804	3.518990
2221.505990	-53.781418	-40.820568	3.460548
2221.509329	-53.313850	-41.171246	3.226768
2221.512655	-53.196968	-40.820568	4.278778
2221.515991	-52.612511	-40.703678	3.460548
2221.519323	-53.138519	-40.236118	3.285210
2221.523530	-52.261841	-40.645237	3.460548
2221.526932	-52.495621	-40.645237	3.168320
2221.529773	-52.437172	-40.645237	2.992981
2221.533127	-51.969612	-40.645237	3.694328
2221.536418	-51.911163	-40.469898	4.044998
2221.539748	-52.028061	-40.586788	3.285210
2221.542658	-51.969612	-40.645237	3.635880
2221.546008	-52.378723	-40.762127	3.402100
2221.549327	-51.911163	-41.112804	3.226768
2221.552658	-52.028061	-40.236118	3.402100
2221.555980	-51.502052	-40.645237	3.051430
2221.559323	-52.437172	-40.703678	3.343658
2221.562651	-52.729401	-40.937466	3.109879
2221.565984	-52.787842	-40.645237	2.700752
2221.569316	-52.846291	-41.171246	3.109879
2221.572651	-53.080070	-40.937466	2.934540
2221.576007	-53.255402	-41.288136	2.408531
2221.579318	-53.606079	-41.755695	2.817642
2221.582648	-53.606079	-41.521915	2.408531
2221.585986	-53.489182	-41.814144	2.466972
2221.589316	-53.489182	-42.106365	2.876091
2221.592698	-54.190529	-42.164814	2.583862
2221.596835	-54.833435	-42.106365	1.824081
2221.600172	-55.651665	-42.164814	1.882523
2221.603493	-55.651665	-42.573933	1.707184
2221.606425	-56.294563	-42.807713	1.940971
2221.609748	-55.651665	-43.392162	1.940971
2221.612679	-56.177673	-43.509060	1.824081
2221.615983	-56.002342	-43.567501	1.940971
2221.619314	-56.820572	-44.561069	2.116302
2221.622647	-57.288132	-44.502628	1.707184
2221.625981	-57.288132	-45.203976	1.882523
2221.629313	-57.697250	-45.028645	1.765633
2221.632702	-58.457039	-45.028645	1.298065
2221.635986	-58.924606	-45.729984	1.473404
2221.639317	-59.450615	-45.846874	1.298065
2221.642649	-59.742844	-46.080654	1.122734
2221.645982	-60.093506	-47.191113	1.064285
2221.649311	-60.561066	-47.308010	1.239624
2221.652652	-61.262421	-47.775570	2.233192
2221.656006	-61.496201	-48.710697	0.479836
2221.659313	-62.606674	-48.827587	0.655174
2221.662653	-62.898880	-49.061367	0.362938
2221.666864	-64.126236	-50.113384	0.012268
2221.670179	-64.360016	-51.165401	-0.279953
2221.673626	-65.470474	-51.340740	-0.221512
2221.676433	-66.113388	-52.217411	-0.396843
2221.679765	-66.522507	-52.918758	-0.689072
2221.683069	-67.516083	-53.853893	-0.922859
2221.685982	-68.568085	-53.503208	-2.150208
2221.689307	-69.386322	-54.496784	-1.448860
2221.692641	-70.087677	-55.139690	-1.916420
2221.695977	-71.198135	-55.841030	-1.507309
2221.699341	-72.367035	-56.425488	-2.617767
2221.702639	-73.185272	-57.360607	-3.611340
2221.705971	-74.704849	-58.471066	-3.552895
2221.709312	-75.289307	-59.289303	-4.429577
2221.712643	-76.575104	-59.932201	-5.247810
2221.715970	-76.341324	-61.217999	-5.247810
2221.719303	-78.562241	-61.802456	-6.066044
2221.722642	-79.029816	-62.679134	-6.650497
2221.725970	-81.016953	-63.205143	-7.351841
2221.729303	-82.185852	-64.549393	-7.234951
2221.732642	-83.296326	-65.192291	-8.286968
2221.735973	-84.991226	-66.185852	-9.222092
2221.740257	-87.855057	-68.465225	-10.507889
2221.743610	-89.199310	-69.575684	-11.033901
2221.746817	-90.309769	-70.393921	-12.319698
2221.749742	-91.887787	-71.796616	-13.079491
2221.753067	-93.699585	-72.907074	-12.904152
2221.756397	-94.751602	-74.426651	-14.365288
2221.759304	-96.680313	-75.186447	-14.131508
2221.762633	-98.550552	-76.647568	-15.709530
2221.765970	-100.303909	-78.342484	-16.527763
2221.769302	-101.706604	-79.920502	-18.047344
2221.772634	-103.284637	-81.732330	-19.508476
2221.775966	-105.388672	-83.018112	-20.092930
2221.779305	-107.258911	-84.829926	-21.612511
2221.782634	-109.187622	-85.940384	-22.722973
2221.785993	-111.116302	-87.284622	-24.300995
2221.789295	-113.220337	-89.213333	-25.469902
2221.792643	-115.207474	-91.375809	-27.749275
2221.795974	-117.194626	-93.362946	-28.509064
2221.799300	-119.298660	-95.174759	-30.846874
2221.802632	-121.870255	-97.161896	-32.191120
2221.805966	-124.149628	-99.558151	-33.593807
2221.809298	-126.838120	-101.077744	-36.282295
2221.813920	-131.981308	-104.993576	-39.555233
2221.816843	-133.617752	-107.039154	-42.126831
2221.820161	-137.066055	-109.844543	-44.581535
2221.823069	-139.754532	-112.591476	-46.685566
2221.826413	-142.384583	-114.637054	-49.490944
2221.829755	-145.832855	-116.682648	-53.056110
2221.832640	-148.696655	-119.604919	-55.452370
2221.835975	-151.969604	-122.176514	-59.075981
2221.839293	-155.125671	-124.748108	-62.699593
2221.842627	-158.690842	-127.611923	-66.498543
2221.845962	-161.963776	-130.475754	-70.765053
2221.849292	-165.762711	-132.696671	-74.856224
2221.852626	-168.801880	-135.268265	-78.888954
2221.855957	-172.308594	-139.125656	-83.330803
2221.859326	-175.990646	-142.106369	-87.714203
2221.862626	-179.380493	-145.145523	-92.623611
2221.865959	-182.711868	-147.834015	-97.299240
2221.869297	-186.569260	-151.165405	-103.260666
2221.872635	-190.543533	-154.379898	-108.520752
2221.875956	-194.284042	-157.477509	-115.125076
2221.879296	-198.433670	-160.692001	-119.976044
2221.882620	-201.881943	-164.257156	-127.106369
2221.886872	-210.531845	-170.452377	-140.431915
2221.890257	-213.980118	-173.725311	-147.562256
2221.893547	-217.720627	-177.290482	-155.218597
2221.896397	-222.630051	-181.030975	-163.751617
2221.899707	-226.429001	-185.239044	-171.583282
2221.903080	-229.760391	-188.102859	-180.934540
2221.905953	-233.442429	-191.668030	-189.642914
2221.909291	-238.410294	-195.291656	-198.409714
2221.912620	-241.566360	-198.973694	-208.520752
2221.915980	-245.189957	-202.129761	-218.514908
2221.919283	-249.222672	-206.571594	-228.392166
2221.922620	-252.378738	-209.552307	-238.970779
2221.925948	-255.593216	-213.818832	-251.127426
2221.929287	-258.749268	-216.741074	-263.225586
2221.932622	-261.671570	-219.897141	-275.382233
2221.935950	-265.236694	-223.345413	-287.947998
2221.939284	-267.516052	-226.735260	-301.039734
2221.942613	-270.263000	-230.183533	-314.774414
2221.945950	-272.367065	-232.813568	-328.625977
2221.949280	-274.354187	-236.320282	-343.763306
2221.952650	-275.172424	-238.716553	-359.075958
2221.955949	-277.159546	-240.995911	-374.213348
2221.960130	-278.445374	-245.671539	-406.767395
2221.963466	-278.971375	-247.366455	-424.359436
2221.966801	-280.081848	-247.775574	-441.659271
2221.969706	-279.263611	-248.769135	-458.725311
2221.973036	-277.627136	-250.230286	-477.194031
2221.976411	-275.873779	-250.347168	-495.838104
2221.979279	-273.302185	-250.113373	-513.313232
2221.982611	-270.905884	-249.061371	-531.957397
2221.985952	-267.457642	-247.541809	-550.367615
2221.989294	-263.834045	-245.613098	-569.713013
2221.992624	-259.041504	-243.625946	-588.240234
2221.995944	-253.839859	-240.411469	-606.884277
2221.999283	-247.527756	-237.781433	-625.060791
2222.002615	-240.572769	-233.631805	-642.419067
2222.005939	-232.974869	-229.482178	-661.121582
2222.009277	-224.208054	-224.280548	-678.772095
2222.012611	-215.382828	-217.968430	-694.902954
2222.015945	-205.914658	-212.357681	-710.858521
2222.019270	-195.160721	-207.097595	-726.580322
2222.022608	-184.114548	-198.973694	-740.782593
2222.025942	-172.250153	-191.901825	-754.750977
2222.029272	-160.151962	-184.128586	-769.011719
2222.033482	-132.273529	-167.062546	-791.162476
2222.036838	-118.071304	-157.419052	-800.806030
2222.040194	-102.466385	-148.184692	-809.105225
2222.043053	-87.445938	-138.073639	-815.826416
2222.046371	-71.315033	-128.196381	-821.963135
2222.049700	-54.716537	-117.033325	-827.749268
2222.052608	-37.942719	-106.571594	-831.840454
2222.055938	-21.870247	-95.876099	-833.885986
2222.059270	-4.862656	-85.122147	-835.639404
2222.062633	12.320282	-74.075974	-835.580933
2222.065941	29.503216	-63.205143	-834.704224
2222.069268	46.335476	-51.983631	-831.957397
2222.072608	63.226181	-40.703678	-828.099976
2222.075951	80.233780	-29.423729	-823.190552
2222.079270	96.832260	-18.552895	-817.112183
2222.082604	112.612503	-7.389832	-809.748047
2222.085933	128.334305	3.188780	-801.448853
2222.089268	143.822327	14.118059	-792.565186
2222.092605	158.725891	24.462887	-782.921631
2222.095941	172.577438	35.684395	-771.349487
2222.099266	186.955002	45.970779	-759.192871
2222.102599	200.222092	55.789597	-745.692017
2222.106889	224.360031	74.199883	-718.105713
2222.110114	234.938629	82.791351	-702.851562
2222.113448	245.225006	91.207474	-687.246582
2222.116358	255.043823	99.623611	-671.992432
2222.119699	263.518402	107.104614	-656.212158
2222.123019	271.408539	114.351837	-639.087646
2222.125925	279.240204	120.956161	-622.255371
2222.129264	285.376984	127.385162	-604.721802
2222.132596	290.812378	132.469894	-587.831055
2222.135926	296.423157	137.788422	-570.239014
2222.139263	300.923462	142.990067	-553.698975
2222.142599	304.488617	146.964340	-535.756287
2222.145934	306.826416	151.347748	-518.865601
2222.149275	309.105774	154.854477	-501.682648
2222.152623	310.976013	157.776733	-485.317963
2222.155924	312.320282	160.640549	-469.128571
2222.159261	313.313843	161.867905	-452.354767
2222.162603	313.255402	164.030396	-436.632965
2222.165928	313.138489	166.134430	-420.969604
2222.169265	312.495605	166.485092	-406.767395
2222.172590	311.969604	166.894211	-391.630035
2222.175925	311.209839	167.829346	-377.486267
2222.180102	307.060181	167.595566	-349.666290
2222.183467	304.839294	166.952652	-335.756287
2222.186805	302.267670	166.192871	-323.424316
2222.189708	299.579193	165.023972	-310.624786
2222.193060	296.306274	164.439499	-298.526611
2222.196386	293.150208	163.504379	-287.947998
2222.199260	290.286377	161.634125	-276.317352
2222.202589	286.604340	160.114548	-264.803619
2222.205934	282.630035	158.594971	-254.692581
2222.209258	279.006439	156.724716	-243.821747
2222.212585	274.623047	155.205139	-234.938049
2222.215924	271.233215	152.984222	-224.885452
2222.219253	266.908234	151.347748	-216.469315
2222.222587	262.641724	149.652832	-207.819412
2222.225925	258.667450	146.379898	-198.701935
2222.229256	254.225601	145.678558	-190.928696
2222.232589	249.666855	142.814728	-181.577438
2222.235941	245.283463	140.652252	-174.973114
