time (s)	magX	magY	magZ
9981.836568	220.871399	128.516068	244.495605
9981.839883	219.234955	128.516068	237.715973
9981.844072	216.137329	128.340744	225.734680
9981.847402	214.617767	127.697845	219.714783
9981.850761	213.039734	127.113388	213.987152
9981.853634	210.935699	126.295151	208.025726
9981.856989	208.890106	126.353592	203.057861
9981.860339	207.019867	125.710693	197.330231
9981.863223	205.675629	124.424896	192.596130
9981.866549	204.331390	124.308014	187.219177
9981.869881	201.526001	123.197540	181.316193
9981.873213	199.947968	122.846878	177.108124
9981.876545	197.843948	122.203979	172.315598
9981.879912	195.447693	121.093506	167.172409
9981.883212	193.752777	120.333725	162.087662
9981.886547	190.888947	119.164825	159.106949
9981.889874	188.960266	118.521912	154.314423
9981.893226	187.148453	117.762131	150.281693
9981.896546	185.102859	117.528351	145.664536
9981.899872	183.291046	116.184097	142.391586
9981.903213	180.719452	115.073639	137.949738
9981.906546	178.264740	114.196960	134.676804
9981.909874	176.511398	113.028061	129.650497
9981.913212	173.998260	112.326706	126.728226
9981.917471	169.907074	110.690247	119.539444
9981.920793	168.212158	109.813553	115.740509
9981.923685	166.458801	108.878433	112.759781
9981.926972	164.880768	108.118652	109.486847
9981.930294	162.426056	107.066620	106.330811
9981.933628	160.146698	106.715958	103.174759
9981.936552	158.393341	105.313263	100.252487
9981.939871	156.639984	104.495026	97.447098
9981.943204	154.828171	103.676788	95.109283
9981.946537	152.724136	102.858566	92.713028
9981.949874	151.204559	101.923431	90.725891
9981.953206	149.626526	101.338989	88.563416
9981.956535	147.347168	100.170074	86.284042
9981.959871	146.587372	99.001175	83.770889
9981.963201	144.366455	98.299820	81.842209
9981.966544	142.846863	97.306244	79.855057
9981.969871	141.561066	96.546463	78.218582
9981.973198	140.041504	95.319107	76.406784
9981.976535	138.638809	94.851547	74.127411
9981.979914	137.060791	93.916428	72.490936
9981.983199	136.359436	93.039749	71.029816
9981.987389	133.729401	91.520172	67.756866
9981.990713	132.209808	91.111038	66.704849
9981.994043	131.274689	90.701935	65.477493
9981.996962	129.287552	89.825249	63.665695
9982.000298	128.352417	88.890121	62.204559
9982.003681	126.891296	88.071884	60.860321
9982.006528	126.073051	87.019867	60.626541
9982.009867	124.962593	86.610748	58.990067
9982.013201	123.559906	85.909409	57.996490
9982.016536	122.624779	85.208069	56.009346
9982.019936	121.631210	84.448273	55.308006
9982.023199	120.403854	83.162476	54.022209
9982.026534	119.527176	82.928696	51.976631
9982.029862	118.708939	82.402687	51.625946
9982.033195	117.540031	81.701340	50.340157
9982.036531	116.429573	81.292229	49.112801
9982.039864	115.436005	80.473984	48.469894
9982.043201	114.091759	79.889534	46.774994
9982.046563	113.565750	79.597313	46.599648
9982.049858	112.922852	79.480423	45.372299
9982.053193	111.695496	78.720627	44.846291
9982.056528	111.227936	77.960846	43.209824
9982.060727	109.182343	77.493279	41.690239
9982.064169	108.481003	77.084160	41.281120
9982.066977	107.604324	76.791931	40.170662
9982.070314	106.727646	76.032143	39.936882
9982.073626	106.201630	75.564575	38.125076
9982.076958	105.324951	75.389244	37.832848
9982.079859	104.857391	75.330795	37.599060
9982.083194	104.623611	74.629456	36.839279
9982.086530	103.396255	74.337234	36.839279
9982.089900	103.337814	73.811218	36.430161
9982.093191	102.694916	73.928116	35.728813
9982.096521	102.344238	73.109879	35.319702
9982.099855	101.701340	73.051430	35.261253
9982.103188	100.941551	72.700760	34.384575
9982.106524	100.590881	72.642319	34.033905
9982.109858	100.240204	72.057861	34.209236
9982.113191	99.772644	71.824081	33.741669
9982.116526	99.129745	71.940971	33.390999
9982.119854	98.779076	71.531853	33.917007
9982.123185	98.720627	70.947403	33.741669
9982.126527	98.428406	71.122734	32.455872
9982.130812	98.136177	70.947403	32.222092
9982.134059	97.668610	69.953827	32.397430
9982.137366	97.668610	70.421387	32.046761
9982.140281	97.376389	70.421387	31.812981
9982.143619	97.493279	70.070724	31.228523
9982.146939	97.025711	70.012276	31.696091
9982.149849	97.142609	69.836937	31.228523
9982.153185	96.733490	69.836937	31.286964
9982.156518	96.616592	69.720047	30.760963
9982.159849	96.791931	69.661606	30.760963
9982.163185	95.798363	69.486267	30.644073
9982.166520	95.739914	69.661606	30.760963
9982.169846	95.739914	69.603157	30.585625
9982.173185	95.798363	69.427826	29.942719
9982.176527	95.856804	69.077148	30.001167
9982.179846	95.155464	69.369377	30.234955
9982.183180	95.213905	69.310928	30.351845
9982.186516	95.272354	69.486267	30.410286
9982.189850	95.097015	69.544708	30.118057
9982.193185	95.155464	70.012276	29.942719
9982.196514	95.330795	69.427826	30.760963
9982.199853	95.506134	69.077148	30.351845
9982.204050	95.915253	69.661606	30.234955
9982.207474	95.447693	69.603157	30.234955
9982.210712	95.564575	69.836937	30.585625
9982.213625	95.798363	69.661606	30.936295
9982.216964	96.499702	70.479836	30.468735
9982.219880	96.265923	70.421387	30.760963
9982.223177	96.675041	70.888954	31.345413
9982.226511	96.558151	71.239624	31.286964
9982.229843	97.259491	71.122734	31.286964
9982.233176	97.551720	70.888954	31.579201
9982.236507	97.493279	71.824081	31.170074
9982.239850	97.551720	71.707184	31.637642
9982.243173	98.311508	72.116302	32.105202
9982.246505	98.603737	72.583870	32.806549
9982.249844	99.129745	72.759201	32.981888
9982.253173	99.421974	73.168320	34.150795
9982.256507	99.071304	73.109879	34.209236
9982.259842	99.947983	74.044998	35.436592
9982.263213	100.707771	74.161896	36.021042
9982.266509	101.116890	74.571014	35.611923
9982.269842	101.701340	74.980133	36.605499
9982.274105	103.396255	75.564575	37.365280
9982.277422	103.571594	76.207481	37.482170
9982.280770	104.740501	76.441269	38.534187
9982.283604	105.091171	76.675049	39.060204
9982.286929	105.266510	76.675049	39.410873
9982.290263	105.734070	77.259499	40.287552
9982.293177	106.376968	76.850380	41.105789
9982.296502	107.954994	77.434830	41.807137
9982.299834	108.013443	77.960846	42.333145
9982.303164	108.948563	79.012863	43.326706
9982.306546	110.000580	79.421974	43.151375
9982.309841	110.935707	80.064880	44.495613
9982.313171	111.286377	81.233780	45.021622
9982.316504	112.279953	81.467560	45.430740
9982.319835	112.747513	81.935120	46.073647
9982.323172	113.507309	82.578026	47.534767
9982.326506	114.267090	82.753357	47.710114
9982.329830	115.494446	83.630043	49.171249
9982.333164	115.728226	84.156052	49.872597
9982.336498	116.838684	84.974281	50.690826
9982.339831	117.715370	85.617187	51.158386
9982.343170	118.884277	86.201637	52.619522
9982.347348	120.812973	87.896545	55.541786
9982.350725	122.040329	88.948563	55.950912
9982.354016	123.092346	89.883698	57.178253
9982.356935	124.319687	90.234375	60.100525
9982.360253	125.196373	91.286392	61.094101
9982.363589	126.189941	92.279953	62.555237
9982.366491	127.417297	92.747513	64.191704
9982.369826	129.053772	93.565750	65.360611
9982.373163	130.339569	94.793106	67.113968
9982.376501	131.742249	95.319107	68.925781
9982.379877	133.144943	96.546463	70.620682
9982.383173	134.313843	97.540039	72.198715
9982.386499	135.482758	98.708939	73.776733
9982.389828	137.236115	99.351837	74.887192
9982.393196	138.521912	100.228531	77.926361
9982.396491	140.333710	101.338989	79.855057
9982.399825	142.028625	102.274109	81.491531
9982.403157	143.139099	103.326126	83.537109
9982.406493	145.009354	104.085922	85.816483
9982.409827	146.178253	104.962585	87.803619
9982.413162	148.223846	106.073059	91.018127
9982.416492	149.918762	107.300400	93.180588
9982.420703	152.607239	108.819992	98.265350
9982.424097	154.594391	110.514908	101.713623
9982.426940	156.289307	111.683807	103.817642
9982.430278	158.451782	112.385147	105.980133
9982.433584	160.029816	112.911163	108.960831
9982.436516	161.549377	113.904739	112.409119
9982.439818	163.361191	115.424316	114.922272
9982.443157	165.523666	116.885452	118.721222
9982.446490	167.043243	117.762131	122.403275
9982.449818	168.679718	118.171249	124.974869
9982.453151	170.666855	119.398605	127.721802
9982.456491	172.829346	120.509064	132.222092
9982.459821	174.173584	121.561081	135.436584
9982.463148	176.277618	122.379303	139.060196
9982.466483	177.329620	123.723557	142.976028
9982.469814	179.784332	125.243134	147.359451
9982.473152	181.479248	125.886032	150.398590
9982.476494	183.817062	127.639389	155.074219
9982.479819	185.102859	128.983627	159.457611
9982.483153	186.914673	130.386322	163.899475
9982.486486	188.668030	131.496780	168.633545
9982.490701	193.168320	133.483932	177.984818
9982.494000	194.863235	134.828171	182.952652
9982.497363	196.382812	135.821747	188.680298
9982.500244	198.253052	136.581528	194.115723
9982.503578	200.123322	137.282883	199.784943
9982.506904	201.876678	138.802444	205.629456
9982.509831	202.928711	139.562241	211.941559
9982.513148	204.974274	139.971359	217.727631
9982.516481	206.786072	140.614258	224.156616
9982.519819	208.188782	141.374039	230.118073
9982.523146	209.533020	141.958511	236.897705
9982.526481	211.578613	142.250732	243.443604
9982.529814	212.513733	142.776733	251.041504
9982.533148	214.091766	142.659851	258.171814
9982.536476	214.910004	142.893631	265.477509
9982.539846	216.020447	143.068970	273.133820
9982.543151	217.306244	142.776733	280.731720
9982.546475	218.182922	143.068970	288.797180
9982.549815	219.351837	142.952072	296.161316
9982.553159	219.994751	142.601395	304.694336
9982.556477	220.170074	141.490936	312.350647
9982.559811	221.046753	140.906479	320.416138
9982.564023	221.397430	139.971359	338.417297
9982.567349	221.806549	139.386917	346.833435
9982.570742	221.689667	137.925766	355.015778
9982.573592	221.397430	136.815308	363.607239
9982.576980	220.170074	135.646408	372.607849
9982.580236	219.994751	134.243713	381.199280
9982.583141	219.059601	132.607254	389.615417
9982.586479	218.241394	130.678558	398.791351
9982.589805	216.429565	128.516068	408.493256
9982.593135	215.202209	127.464066	418.253632
9982.596500	212.864410	124.950897	427.663361
9982.599801	210.877258	122.671539	437.131470
9982.603136	208.597900	120.099945	445.722992
9982.606478	206.084747	117.703674	455.074219
9982.609814	203.104034	115.132080	464.367065
9982.613138	200.123322	112.209824	472.841614
9982.616473	196.499695	108.995331	482.718872
9982.619808	192.642303	105.722382	491.310364
9982.623139	188.492691	102.449448	500.778503
9982.626465	184.167725	98.358261	509.662170
9982.629801	179.842773	94.267090	518.195251
9982.634077	169.147278	85.208069	535.494995
9982.637315	164.062531	80.357101	544.904724
9982.640665	157.984222	75.623032	552.619507
9982.643560	152.198120	70.596725	559.691406
9982.646894	146.119812	65.044418	567.990662
9982.650232	139.398590	59.609001	575.588562
9982.653138	132.326706	53.413795	582.309753
9982.656471	125.371704	47.686150	588.329651
9982.659799	117.890701	41.081825	595.284607
9982.663154	110.468140	35.061951	601.070740
9982.666460	103.454697	28.399181	607.324402
9982.669803	95.155464	20.976622	611.649292
9982.673132	86.973114	13.963180	615.857422
9982.676472	78.907654	6.540621	620.766785
9982.679801	69.848625	-0.122150	624.624207
9982.683135	60.906487	-7.953831	627.721802
9982.686460	52.724136	-14.791931	630.118042
9982.689794	43.606659	-21.630039	632.572754
9982.693130	35.365864	-28.818821	634.092346
9982.696465	26.248390	-36.475159	634.501465
9982.699796	17.715370	-43.547047	635.553467
9982.703127	8.481003	-50.502041	635.670349
9982.707334	-9.227936	-64.879608	635.436584
9982.710674	-17.585625	-71.834595	633.800110
9982.713608	-26.527763	-78.146698	632.455872
9982.716913	-34.885452	-84.634125	629.475159
9982.720246	-43.886032	-91.121567	626.611328
9982.723229	-52.243721	-97.199890	622.929260
9982.726468	-60.893623	-103.336655	619.071899
9982.729791	-69.134422	-109.824081	614.630066
9982.733126	-77.199883	-115.434830	610.655762
9982.736459	-85.206902	-120.636475	605.161865
9982.739798	-92.629448	-125.896561	599.901794
9982.743123	-100.578026	-131.215088	593.998840
9982.746457	-108.234367	-136.299820	587.394531
9982.749787	-115.773827	-141.092346	580.790161
9982.753124	-122.436592	-145.475739	573.893616
9982.756475	-129.391602	-149.391586	566.880188
9982.759794	-136.288147	-153.774994	558.756287
9982.763126	-142.658691	-158.333725	550.573975
9982.766460	-148.444763	-162.015778	542.917603
9982.769789	-154.347748	-165.639404	533.683228
9982.773120	-159.549377	-169.146118	525.091797
9982.776456	-165.160156	-171.367035	500.895386
9982.780713	-174.102295	-177.971359	497.973145
9982.784096	-178.485687	-180.250732	488.563416
9982.786909	-182.752197	-182.939224	478.277039
9982.790218	-186.434265	-184.867935	468.633545
9982.793574	-190.174744	-186.621277	457.879639
9982.796456	-193.213928	-188.491531	448.528381
9982.799793	-196.136200	-190.011124	438.884857
9982.803120	-198.941559	-191.939804	428.598480
9982.806452	-201.454712	-193.225601	418.662781
9982.809783	-203.324982	-193.284058	408.142609
9982.813115	-204.844543	-194.862076	398.382202
9982.816451	-206.714813	-195.563416	389.206299
9982.819788	-207.825256	-196.030975	378.101715
9982.823116	-208.760376	-195.446533	369.334869
9982.826452	-209.461731	-195.738739	360.217407
9982.829781	-209.403290	-196.264771	350.866150
9982.833118	-210.572205	-195.504974	341.339569
9982.836475	-210.630646	-195.680313	332.514313
9982.839781	-210.805969	-195.095840	323.338409
9982.843121	-210.689087	-194.277618	315.565155
9982.846453	-210.572205	-193.342499	307.207458
9982.850629	-209.461731	-191.706009	290.024536
9982.853965	-208.701935	-190.303329	282.309753
9982.857294	-208.175934	-189.075989	274.828735
9982.860198	-207.591461	-188.140869	266.880188
9982.863533	-206.773254	-186.738174	260.158966
9982.866890	-205.604340	-184.867935	252.736420
9982.869777	-204.610748	-183.231445	246.015198
9982.873112	-203.734100	-181.594971	238.066620
9982.876443	-202.798981	-180.309174	231.111633
9982.879847	-201.454712	-179.198715	225.383972
9982.883111	-200.052032	-176.919342	218.662781
9982.886445	-198.006439	-174.932220	212.993591
9982.889777	-196.720642	-172.769730	205.863251
9982.893108	-195.376404	-171.425491	200.369354
9982.896445	-193.506165	-169.379898	194.641739
9982.899779	-191.986572	-167.568100	188.680298
9982.903112	-190.350098	-165.697845	182.835770
9982.906444	-188.772064	-163.944473	177.751022
9982.909781	-187.077148	-162.015778	172.724731
9982.913109	-184.914703	-160.320862	167.347748
9982.916443	-183.336639	-158.333725	162.263000
9982.919777	-181.700195	-156.405029	157.821167
9982.923995	-177.667450	-153.424316	147.476318
9982.927380	-175.797211	-150.443604	143.794281
9982.930718	-174.102295	-148.573349	138.884857
9982.933577	-172.582703	-147.170654	134.501465
9982.936863	-170.770905	-144.774399	130.176498
9982.940198	-168.725311	-143.196381	126.611328
9982.943111	-166.855042	-141.501465	123.396851
9982.946440	-165.160156	-139.923447	118.545883
9982.949771	-163.348328	-137.994736	115.798950
9982.953110	-161.419617	-136.884277	111.766220
9982.956435	-159.666290	-134.488022	108.610168
9982.959771	-157.796021	-132.910004	105.044998
9982.963100	-155.750427	-132.033325	102.882523
9982.966456	-153.997101	-130.455292	100.310928
9982.969772	-152.243713	-128.526596	96.628876
9982.973104	-149.789032	-127.825241	93.998825
9982.976438	-148.795441	-125.896561	90.901230
9982.979773	-146.925201	-124.844543	88.914093
9982.983099	-145.171844	-123.091187	86.342499
9982.986431	-143.593811	-121.922272	83.478668
9982.989821	-142.074219	-120.227356	81.783752
9982.994374	-138.976624	-117.772644	76.991226
9982.997282	-137.398590	-116.369965	76.114548
9983.000605	-135.820587	-114.733490	73.309174
9983.003527	-134.768555	-114.032150	72.198715
9983.006862	-132.781403	-112.571014	69.627121
9983.010248	-131.904755	-110.934540	68.224442
9983.013100	-130.969604	-110.233200	66.120392
9983.016435	-129.216248	-108.888962	64.308594
9983.019765	-127.988899	-107.544724	62.905899
9983.023130	-126.995323	-106.375809	61.503212
9983.026433	-125.475746	-104.914673	59.983643
9983.029765	-124.073067	-104.213333	57.528931
9983.033099	-123.137932	-103.102875	56.418472
9983.036434	-121.793694	-102.284637	55.950912
9983.039762	-120.975456	-100.531265	53.846878
9983.043097	-120.098778	-99.829926	52.444191
9983.046429	-118.579201	-98.427231	52.268845
9983.049768	-117.527168	-97.199890	49.931030
9983.053132	-116.475166	-96.556976	49.054352
9983.056430	-115.715370	-95.855637	47.476334
9983.059762	-113.903572	-94.978958	45.839867
9983.063094	-112.676216	-93.985382	44.378731
9983.067298	-110.630638	-91.355347	42.450027
9983.070706	-109.929283	-90.361786	41.690239
9983.074082	-108.701927	-89.894211	40.229111
9983.076901	-107.942146	-89.485092	40.053764
9983.080194	-106.656349	-88.433075	38.767967
9983.083524	-105.370537	-87.497955	37.949738
9983.086427	-104.961433	-86.562836	37.365280
9983.089760	-104.260094	-85.861481	35.787262
9983.093091	-103.617195	-85.393921	35.085915
9983.096455	-102.156059	-84.634125	34.852135
9983.099757	-101.746941	-84.751022	34.501465
9983.103094	-100.928703	-83.874344	33.917007
9983.106426	-99.818245	-83.406784	32.397430
9983.109753	-99.935127	-82.822327	31.579201
9983.113091	-98.766212	-81.653427	31.403854
9983.116417	-97.889549	-81.594971	30.702515
9983.119751	-96.954414	-81.068970	31.111633
9983.123090	-96.954414	-80.718292	29.942719
9983.126424	-96.954414	-80.133835	29.767387
9983.129756	-95.551735	-79.900055	29.358269
9983.133084	-94.616600	-79.490936	29.650497
9983.136419	-94.382820	-79.374039	29.007599
9983.140713	-93.681480	-78.614258	27.488014
9983.143950	-93.272362	-77.854477	27.312683
9983.146879	-92.804802	-77.503799	27.488014
9983.150186	-92.980141	-77.620697	26.903564
9983.153507	-92.161888	-76.977798	26.202217
9983.156412	-91.928108	-76.802444	26.202217
9983.159748	-91.694328	-76.802444	26.085327
9983.163086	-91.577446	-76.101105	26.143776
9983.166419	-90.466972	-75.867325	25.909996
9983.169750	-90.233192	-75.516663	25.500877
9983.173079	-89.940971	-75.282883	25.383987
9983.176413	-90.759209	-75.516663	25.033310
9983.179751	-89.707191	-75.049103	24.624199
9983.183083	-90.116310	-74.756866	24.448860
9983.186417	-89.414970	-74.523087	23.864410
9983.189759	-89.298073	-74.289307	23.513733
9983.193083	-89.298073	-73.412628	24.215080
9983.196446	-88.772072	-73.295731	23.981300
9983.199748	-88.655174	-73.587967	23.163063
9983.203084	-89.064293	-73.237289	23.805962
9983.206412	-87.953835	-73.704849	23.279953
9983.210594	-87.778496	-73.471069	23.046173
9983.213939	-88.304512	-73.003510	23.689072
9983.217274	-87.661598	-73.529510	23.221512
9983.220166	-87.953835	-73.354172	22.461716
9983.223528	-87.895378	-73.412628	22.695503
9983.226924	-88.246056	-73.120392	22.695503
9983.229743	-87.427818	-73.529510	23.163063
9983.233081	-87.953835	-73.880188	23.922852
9983.236427	-87.486259	-73.763290	23.104622
9983.239749	-87.661598	-73.938629	23.104622
9983.243076	-87.836937	-73.646408	22.987732
9983.246406	-87.953835	-74.172424	23.864410
9983.249741	-88.070732	-74.639984	23.338402
9983.253073	-88.888954	-74.113968	23.104622
9983.256411	-88.888954	-74.464630	24.098190
9983.259741	-89.064293	-74.523087	24.273529
9983.263068	-88.947395	-74.639984	23.922852
9983.266405	-88.655174	-75.691986	24.682640
9983.269742	-88.772072	-75.165985	24.039749
9983.273073	-89.122734	-76.276459	24.156639
9983.276433	-89.356514	-75.691986	24.565750
9983.281082	-89.590294	-76.627121	25.968437
9983.284028	-90.350090	-76.860901	26.085327
9983.287329	-90.876106	-77.036240	26.377556
9983.290234	-91.168312	-77.386917	26.202217
9983.293490	-92.161888	-77.854477	27.429573
9983.296825	-92.103462	-78.205139	27.020454
9983.300160	-92.337242	-78.731155	27.429573
9983.303066	-92.804802	-79.257156	27.604912
9983.306398	-93.564583	-79.374039	28.130920
9983.309737	-93.681480	-79.315613	28.540031
9983.313067	-94.207481	-80.016953	28.598480
9983.316398	-95.201057	-80.542953	29.416718
9983.319750	-95.610176	-81.244293	29.767387
9983.323067	-95.902397	-81.127411	30.001167
9983.326403	-96.954414	-82.004089	31.053185
9983.329728	-97.363533	-82.062531	31.637642
